# mphi[eV]; Yb X-coefficients [Hz]:	Yb+:S1/2->D5/2; Yb+:S1/2->F7/2;
1	-3149410968387.54	25714094266684.6
1.0232929923	-3149500347488.03	25719045456248
1.0471285481	-3149587507523.08	25723850027057.1
1.0715193052	-3149672460356.05	25728509400565.6
1.0964781961	-3149755217850.26	25733024998227.6
1.1220184543	-3149835791869.08	25737398241497.1
1.1481536215	-3149914194275.84	25741630551828
1.1748975549	-3149990436933.88	25745723350674.3
1.2022644346	-3150064531706.56	25749678059489.8
1.2302687708	-3150136490457.22	25753496099728.6
1.2589254118	-3150206325049.19	25757178892844.7
1.2882495517	-3150274047345.83	25760727860291.9
1.3182567386	-3150339669210.48	25764144423524.2
1.3489628826	-3150403202506.47	25767430003995.6
1.3803842646	-3150464659097.17	25770586023160.1
1.4125375446	-3150524050845.91	25773613902471.5
1.4454397707	-3150581389616.04	25776515063383.9
1.4791083882	-3150636687270.89	25779290927351.2
1.5135612484	-3150689955673.82	25781942915827.4
1.5488166189	-3150741206688.16	25784472450266.3
1.5848931925	-3150790452177.27	25786880952122
1.6218100974	-3150837704004.49	25789169842848.5
1.6595869074	-3150882974033.16	25791340543899.6
1.6982436525	-3150926274126.61	25793394476729.3
1.7378008287	-3150967616148.22	25795333062791.7
1.77827941	-3151007011961.31	25797157723540.5
1.8197008586	-3151044473429.23	25798869880429.9
1.8620871367	-3151080012415.32	25800470954913.7
1.905460718	-3151113640782.93	25801962368445.9
1.9498445998	-3151145370395.4	25803345542480.4
1.995262315	-3151175213116.08	25804621898471.3
2.0417379447	-3151203180808.31	25805792857872.4
2.0892961309	-3151229285335.43	25806859842137.8
2.1379620895	-3151253538560.78	25807824272721.3
2.1877616239	-3151275952347.72	25808687571076.9
2.2387211386	-3151296538559.6	25809451158658.6
2.2908676528	-3151315309059.74	25810116456920.4
2.3442288153	-3151332275711.5	25810684887316.1
2.398832919	-3151347450378.22	25811157871299.8
2.4547089157	-3151360844923.24	25811536830325.4
2.5118864315	-3151372471209.91	25811823185846.9
2.5703957828	-3151382341101.58	25812018359318.1
2.6302679919	-3151390466461.58	25812123772193.2
2.6915348039	-3151396859153.27	25812140845925.9
2.7542287033	-3151401531039.98	25812071001970.3
2.8183829313	-3151404493985.06	25811915661780.4
2.8840315031	-3151405759851.86	25811676246810
2.9512092267	-3151405340503.72	25811354178513.1
3.0199517204	-3151403247803.97	25810950878343.8
3.0902954325	-3151399493615.98	25810467767755.9
3.1622776602	-3151394089803.08	25809906268203.4
3.2359365693	-3151387048228.61	25809267801140.2
3.3113112148	-3151378380755.93	25808553788020.4
3.3884415614	-3151368099248.36	25807765650297.8
3.4673685045	-3151356215569.28	25806904809426.4
3.5481338923	-3151342741582	25805972686860.3
3.6307805477	-3151327689149.88	25804970704053.2
3.715352291	-3151311070136.26	25803900282459.2
3.8018939632	-3151292896404.49	25802762843532.3
3.8904514499	-3151273179817.9	25801559808726.3
3.9810717055	-3151251932239.86	25800292599495.3
4.073802778	-3151229165533.69	25798962637293.2
4.1686938347	-3151204891562.75	25797571343573.9
4.265795188	-3151179122190.38	25796120139791.5
4.3651583224	-3151151869279.92	25794610447399.8
4.4668359215	-3151123144694.71	25793043687852.8
4.5708818961	-3151092960298.1	25791421282604.5
4.6773514129	-3151061327953.45	25789744653108.8
4.7863009232	-3151028259524.08	25788015220819.8
4.8977881937	-3150993766873.34	25786234407191.2
5.0118723363	-3150957861864.57	25784403633677.2
5.1286138399	-3150920556361.13	25782524321731.5
5.2480746025	-3150881862226.37	25780597892808.3
5.3703179637	-3150841791323.6	25778625768361.4
5.4954087386	-3150800355516.2	25776609369844.9
5.6234132519	-3150757566667.5	25774550118712.6
5.7543993734	-3150713436640.83	25772449436418.5
5.8884365536	-3150667977299.56	25770308744416.6
6.0255958607	-3150621200507.02	25768129464160.8
6.1659500186	-3150573118126.55	25765913017105.1
6.3095734448	-3150523742021.51	25763660824703.5
6.4565422903	-3150473084055.23	25761374308409.8
6.6069344801	-3150421156091.06	25759054889678.1
6.7608297539	-3150367969992.34	25756703989962.2
6.9183097092	-3150313537622.43	25754323030716.2
7.0794578438	-3150257870844.65	25751913433394.1
7.2443596007	-3150200981522.36	25749476619449.7
7.413102413	-3150142881518.91	25747014010337
7.5857757503	-3150083582697.62	25744527027510
7.7624711663	-3150023096921.86	25742017092422.6
7.9432823472	-3149961436054.96	25739485626528.7
8.1283051616	-3149898611960.27	25736934051282.5
8.317637711	-3149834636501.13	25734363788137.7
8.511380382	-3149769521540.9	25731776258548.3
8.7096358996	-3149703278942.89	25729172883968.4
8.9125093813	-3149635920570.48	25726555085851.8
9.1201083936	-3149567458287	25723924285652.5
9.332543008	-3149497903955.78	25721281904824.5
9.5499258602	-3149427269440.19	25718629364821.7
9.7723722096	-3149355566603.56	25715968087098
10	-3149282807309.24	25713299493107.5
10.2329299228	-3149209003420.57	25710625004304.1
10.4712854805	-3149134166800.89	25707946042141.7
10.7151930524	-3149058309313.55	25705264028074.3
10.9647819614	-3148981442821.9	25702580383555.8
11.220184543	-3148903579189.28	25699896530040.3
11.481536215	-3148824730279.02	25697213888981.6
11.7489755494	-3148744907954.49	25694533881833.7
12.0226443462	-3148664124079.02	25691857930050.5
12.3026877081	-3148582390515.94	25689187455086.1
12.5892541179	-3148499719128.63	25686523878394.4
12.8824955169	-3148416121780.41	25683868621429.2
13.1825673856	-3148331610334.62	25681223105644.7
13.4896288259	-3148246196654.62	25678588752494.7
13.803842646	-3148159892603.74	25675966983433.1
14.1253754462	-3148072710045.34	25673359219914.1
14.4543977075	-3147984660842.75	25670766883391.4
14.7910838817	-3147895756859.33	25668191395319
15.1356124844	-3147806009958.4	25665634177151
15.4881661891	-3147715432003.33	25663096650341.3
15.8489319246	-3147624034857.45	25660580236343.7
16.2181009736	-3147531830384.1	25658086356612.3
16.5958690744	-3147438830446.63	25655616432601.1
16.9824365246	-3147345046908.4	25653171885763.9
17.3780082875	-3147250491632.73	25650754137554.8
17.7827941004	-3147155176482.98	25648364609427.6
18.1970085861	-3147059113322.48	25646004722836.4
18.6208713666	-3146962314014.59	25643675899235.1
19.0546071796	-3146864790422.64	25641379560077.7
19.4984459976	-3146766554409.99	25639117126818
19.9526231497	-3146667617839.97	25636890020910.2
20.4173794467	-3146567992575.94	25634699663808
20.8929613085	-3146467690481.22	25632547476965.5
21.379620895	-3146366723419.18	25630434881836.6
21.8776162395	-3146265103253.15	25628363299875.3
22.3872113857	-3146162841846.47	25626334152535.6
22.9086765277	-3146059951062.5	25624348861271.3
23.4422881532	-3145956442764.58	25622408847536.5
23.9883291902	-3145852328816.04	25620515532785
24.5470891569	-3145747621080.24	25618670338470.9
25.1188643151	-3145642331420.51	25616874686048.2
25.7039578277	-3145536471700.22	25615129996970.7
26.302679919	-3145430053782.69	25613437692692.4
26.9153480393	-3145323089531.26	25611799194667.2
27.5422870334	-3145215590809.3	25610215924349.2
28.1838293126	-3145107569480.14	25608689303192.3
28.8403150313	-3144999037407.11	25607220752650.4
29.5120922667	-3144890006453.59	25605811694177.5
30.199517204	-3144780488482.89	25604463549227.6
30.9029543251	-3144670495358.37	25603177739254.5
31.6227766017	-3144560038943.37	25601955685712.3
32.359365693	-3144449131101.24	25600798810054.9
33.1131121483	-3144337783695.32	25599708533736.3
33.8844156139	-3144226008588.95	25598686278210.3
34.6736850453	-3144113817645.49	25597733464931.1
35.4813389234	-3144001222728.26	25596851515352.5
36.307805477	-3143888235700.63	25596041850928.4
37.1535229097	-3143774868425.92	25595305893112.9
38.0189396321	-3143661132767.5	25594645063359.9
38.9045144994	-3143547040588.68	25594060783123.3
39.8107170553	-3143432603752.84	25593554473857.1
40.7380277804	-3143317834123.31	25593127557015.2
41.686938347	-3143202743563.43	25592781454051.7
42.6579518802	-3143087343936.55	25592517586420.4
43.651583224	-3142971647106.01	25592337375575.4
44.6683592151	-3142855664935.15	25592242242970.5
45.7088189615	-3142739409287.33	25592233610059.7
46.7735141287	-3142622892025.88	25592312898297
47.8630092323	-3142506125014.15	25592481529136.4
48.9778819368	-3142389120115.48	25592740924031.7
50.1187233627	-3142271889193.23	25593092504437
51.2861383991	-3142154444110.72	25593537691806.2
52.480746025	-3142036796731.31	25594077907593.2
53.703179637	-3141918958918.34	25594714573252
54.9540873858	-3141800942535.16	25595449110236.6
56.234132519	-3141682759445.1	25596282940000.9
57.5439937337	-3141564421511.52	25597217483998.9
58.8843655356	-3141445940597.76	25598254163684.5
60.2559586074	-3141327328567.15	25599394400511.7
61.6595001861	-3141208597283.06	25600639615934.4
63.095734448	-3141089758608.81	25601991231406.6
64.5654229035	-3140970824407.76	25603450668382.2
66.0693448008	-3140851806543.25	25605019348315.3
67.6082975392	-3140732693322.6	25606698485562.6
69.1830970919	-3140612697901.27	25608482479592.4
70.7945784384	-3140490101015.94	25610357532343.7
72.4435960075	-3140363128057.03	25612309359168.7
74.1310241301	-3140230004414.96	25614323675419.6
75.8577575029	-3140088955480.18	25616386196448.6
77.6247116629	-3139938206643.09	25618482637608.1
79.4328234724	-3139775983294.12	25620598714250.2
81.2830516164	-3139600510823.72	25622720141727.2
83.1763771103	-3139410014622.28	25624832635391.4
85.1138038202	-3139202720080.25	25626921910594.9
87.0963589956	-3138976852588.04	25628973682690
89.1250938134	-3138730637536.08	25630973667029
91.2010839356	-3138462300314.8	25632907578964.1
93.3254300797	-3138170066314.62	25634761133847.5
95.4992586021	-3137852160925.98	25636520047031.6
97.7237220956	-3137506809539.3	25638170033868.4
100	-3137132237544.98	25639696809710.4
102.3292992281	-3136726670333.47	25641086089909.6
104.7128548051	-3136288333295.19	25642323589818.4
107.1519305238	-3135815451820.58	25643395024789
109.6478196143	-3135306251300.03	25644286110173.7
112.2018454302	-3134758957124.01	25644982561324.6
114.8153621497	-3134171794682.91	25645470093594
117.489755494	-3133542989367.17	25645734422334.2
120.2264434617	-3132870766567.21	25645761262897.5
123.0268770812	-3132153351673.46	25645536330635.9
125.8925411794	-3131388970076.35	25645045340901.9
128.8249551693	-3130575847166.3	25644274009047.6
131.8256738556	-3129712208333.72	25643208050425.3
134.8962882592	-3128796278969.06	25641833180387.2
138.0384264603	-3127826284462.74	25640135114285.6
141.2537544623	-3126800450205.18	25638099567472.7
144.5439770746	-3125717001586.8	25635712255300.7
147.9108388168	-3124574163998.04	25632958893121.9
151.3561248436	-3123370162829.32	25629825196288.6
154.8816618912	-3122103223471.06	25626296880152.9
158.4893192461	-3120771571313.69	25622359660067.1
162.1810097359	-3119373431747.63	25617999251383.5
165.9586907438	-3117907030163.31	25613201369454.3
169.8243652462	-3116370591951.16	25607951729631.8
173.7800828749	-3114762342501.6	25602236047268.1
177.8279410039	-3113080507205.06	25596040037715.5
181.970085861	-3111323311451.96	25589349416326.4
186.2087136663	-3109488980632.72	25582149898452.8
190.5460717963	-3107575740137.78	25574427199447.1
194.9844599758	-3105581815357.55	25566167034661.5
199.5262314969	-3103505431682.47	25557355119448.2
204.173794467	-3101344814502.96	25547977169159.5
208.9296130854	-3099098189209.45	25538018899147.7
213.7962089502	-3096763781192.35	25527466024764.9
218.776162395	-3094339815842.09	25516304261363.4
223.8721138568	-3091824518549.11	25504519324295.5
229.0867652768	-3089216114703.83	25492096928913.3
234.422881532	-3086512829696.67	25479022790569.2
239.8832919019	-3083712888918.05	25465282624615.4
245.4708915685	-3080814517758.41	25450862146404
251.188643151	-3077815941608.16	25435747071287.5
257.0395782769	-3074715385857.74	25419923114618
263.0267991895	-3071511075897.57	25403375991747.6
269.1534803927	-3068201237118.07	25386091418028.8
275.4228703338	-3064784094909.68	25368055108813.8
281.8382931264	-3061257874662.81	25349252779454.6
288.4031503127	-3057620801767.89	25329670145303.8
295.1209226666	-3053871101615.34	25309292921713.3
301.9951720402	-3050006999595.6	25288106824035.6
309.0295432514	-3046026721099.08	25266097567622.8
316.2277660168	-3041927661929.14	25243248005000.7
323.5936569296	-3037700293670.87	25219517093873.5
331.1311214826	-3033331644470.18	25194851908962.5
338.8441561392	-3028808717455.95	25169199438657.9
346.7368504525	-3024118515757.12	25142506671350
354.8133892336	-3019248042502.6	25114720595428.8
363.0780547701	-3014184300821.28	25085788199284.6
371.5352290972	-3008914293842.1	25055656471307.6
380.1893963206	-3003425024693.95	25024272399887.8
389.0451449943	-2997703496505.75	24991582973415.6
398.1071705535	-2991736712406.4	24957535180281.1
407.3802778041	-2985511675524.83	24922076008874.4
416.8693834703	-2979015388989.95	24885152447585.8
426.5795188016	-2972234855930.65	24846711484805.3
436.5158322402	-2965157079475.87	24806700108923.3
446.683592151	-2957769062754.49	24765065308329.9
457.0881896149	-2950057808895.45	24721754071415.1
467.7351412872	-2942010321027.64	24676713386569.4
478.6300923226	-2933613602279.99	24629890242182.7
489.7788193684	-2924854655781.4	24581231626645.3
501.1872336273	-2915720484660.79	24530684528347.4
512.8613839914	-2906198092047.06	24478195935679.1
524.8074602498	-2896274481069.13	24423712837030.7
537.0317963703	-2885936654855.91	24367182220792.3
549.5408738576	-2875171616536.31	24308551075354
562.3413251903	-2863966369239.24	24247766389106.1
575.4399373372	-2852307916093.61	24184775150438.7
588.8436553556	-2840183260228.34	24119524347742.1
602.5595860744	-2827579404772.33	24051960969406.3
616.5950018615	-2814483352854.5	23982032003821.6
630.9573444802	-2800882107603.76	23909684439378.2
645.6542290347	-2786762672149.02	23834865264466.1
660.6934480076	-2772112049619.19	23757521467475.7
676.082975392	-2756917243143.18	23677600036797.1
691.8309709189	-2741165255849.91	23595047960820.5
707.9457843841	-2724843090868.29	23509812227935.9
724.435960075	-2707937751327.22	23421839826533.7
741.3102413009	-2690436240355.63	23331077745004.1
758.5775750292	-2672325561082.41	23237472971737
776.2471166287	-2653592716636.48	23140972495122.9
794.3282347243	-2634224710146.76	23041523303551.7
812.8305161641	-2614208544742.16	22939072385413.8
831.7637711027	-2593531223551.58	22833566729099.3
851.1380382024	-2572179924119.08	22724953690166.6
870.9635899561	-2550148810801.33	22613195332392.7
891.2509381337	-2527441245329.98	22498273081315.8
912.0108393559	-2504061216463.77	22380169682454.1
933.254300797	-2480012712961.44	22258867881325.9
954.9925860214	-2455299723581.71	22134350423449.2
977.2372209558	-2429926237083.32	22006600054342.2
1000	-2403896242225	21875599519523.1
1023.2929922808	-2377213727765.47	21741331564509.9
1047.1285480509	-2349882682463.48	21603778934820.8
1071.5193052376	-2321907095077.76	21462924375974
1096.4781961432	-2293290954367.04	21318750633487.6
1122.018454302	-2264038249090.04	21171240452879.8
1148.1536214969	-2234152968005.5	21020376579668.7
1174.8975549395	-2203639099872.16	20866141759372.5
1202.2644346174	-2172500633448.75	20708518737509.2
1230.2687708124	-2140741557493.99	20547490259597.1
1258.9254117942	-2108365860766.63	20383039071154.3
1288.2495516931	-2075377532025.38	20215147917699
1318.2567385564	-2041780560028.99	20043799544749.2
1348.9628825917	-2007578933536.19	19868976697823.2
1380.3842646029	-1972776641305.7	19690662122439
1412.5375446228	-1937377672096.26	19508838564114.9
1445.4397707459	-1901386014666.61	19323488768368.9
1479.1083881682	-1864805657775.47	19134595480719.2
1513.5612484362	-1827640590181.58	18942141446684
1548.8166189125	-1789894800643.67	18746109411781.5
1584.8931924611	-1751572277920.46	18546482121529.6
1621.8100973589	-1712677010770.7	18343242321446.7
1659.5869074376	-1673212987953.12	18136372757050.8
1698.2436524617	-1633184198226.44	17925856173860.1
1737.8008287494	-1592594630349.4	17711675317392.8
1778.2794100389	-1551448273080.73	17493812933166.9
1819.70085861	-1509749115179.17	17272251766700.7
1862.0871366629	-1467501145403.44	17046974563512.2
1905.4607179633	-1424708352512.28	16817964069119.7
1949.8445997581	-1381374725264.41	16585203029041.2
1995.2623149689	-1337504252418.58	16348674188795
2041.7379446695	-1293106917530.03	16108381465214.7
2089.296130854	-1248225427020.16	15864444339711.7
2137.9620895022	-1202913597094.85	15617021529183.3
2187.7616239496	-1157225253036.14	15366271782579.9
2238.7211385683	-1111214220126.07	15112353848852.4
2290.8676527678	-1064934323646.68	14855426476951.3
2344.2288153199	-1018439388880.01	14595648415827.3
2398.8329190195	-971783241108.118	14333178414431.2
2454.708915685	-925019705613.03	14068175221713.5
2511.8864315096	-878202607676.796	13800797586625
2570.3957827689	-831385772581.454	13531204258116.2
2630.2679918954	-784623025609.051	13259553985138
2691.5348039269	-737968192041.625	12986005516640.9
2754.2287033382	-691475097161.221	12710717601575.6
2818.3829312645	-645197566249.877	12433848988892.8
2884.0315031266	-599189424589.641	12155558427543.1
2951.2092266664	-553504497462.551	11876004666477.3
3019.951720402	-508196610150.652	11595346454645.9
3090.2954325136	-463319587935.983	11313742540999.7
3162.2776601684	-418927256100.59	11031351674489.3
3235.9365692963	-375073439926.512	10748332604065.4
3311.3112148259	-331811964695.794	10464844078678.7
3388.441561392	-289196655690.475	10181044847279.8
3467.3685045253	-247281338192.6	9897093658819.38
3548.1338923358	-206119837484.209	9613149262248.12
3630.780547701	-165765978847.347	9329370406516.7
3715.3522909717	-126273587564.052	9045915840575.78
3801.8939632056	-87696488916.3715	8762944313376.03
3890.4514499428	-50088508186.345	8480614573868.12
3981.071705535	-13503470656.0126	8199085371002.7
4073.8027780411	22008731414.3494	7918515631813.33
4168.6938347034	56427839769.0503	7639065625128.42
4265.7951880159	89747103165.0902	7360896231359.02
4365.1583224017	121959839044.107	7084168334026.05
4466.8359215096	153059364847.736	6809042816650.53
4570.8818961488	183038998017.617	6535680562753.4
4677.351412872	211892055995.383	6264242455855.66
4786.3009232264	239611856222.673	5994889379478.25
4897.7881936845	266191716141.123	5727782217142.16
5011.8723362727	291624953192.371	5463081852368.36
5128.6138399137	315904884818.052	5200949168677.83
5248.0746024977	339024828459.804	4941545049591.52
5370.3179637025	360978101559.264	4685030378630.43
5495.4087385763	381758021558.068	4431566039315.51
5623.4132519035	401357905897.853	4181312915167.75
5754.3993733716	419771072020.256	3934431889708.1
5888.4365535559	436990837366.913	3691083846457.56
6025.5958607436	453010519379.462	3451429668937.07
6165.9500186148	467823435499.539	3215630240667.64
6309.5734448019	481422903168.781	2983846445170.2
6456.5422903466	493802239828.825	2756239165965.76
6606.934480076	504954762921.307	2532969286575.27
6760.8297539198	514873789887.864	2314197690519.72
6918.3097091894	523553801879.514	2100081827566.13
7079.4578438414	531016684303.687	1890698285820.68
7244.3596007499	537312086562.658	1686041730249.53
7413.1024130092	542490893719.614	1486103179757.71
7585.7757502918	546603990837.735	1290873653250.31
7762.4711662869	549702262980.207	1100344169632.35
7943.2823472428	551836595210.212	914505747808.91
8128.305161641	553057872590.934	733349406685.024
8317.6377110267	553416980185.555	556866165165.762
8511.3803820238	552964803057.259	385047042156.164
8709.6358995608	551752226269.23	217883056561.3
8912.5093813375	549830134884.65	55365227286.2077
9120.1083935591	547249413966.703	-102515426764.043
9332.5430079699	544060948578.573	-255767886684.412
9549.9258602144	540315623783.441	-404401133569.832
9772.3722095581	536064324644.493	-548424148515.261
10000	531357936224.911	-687845912615.633
10232.9299228075	526247343587.878	-822675406965.9
10471.285480509	520783431796.577	-952921612661.018
10715.1930523761	515017085914.192	-1078593510795.91
10964.7819614319	508999191003.907	-1199700082465.54
11220.1845430196	502780632128.904	-1316250308764.84
11481.5362149688	496412294352.367	-1428253170788.77
