# mphi[eV]; Yb X-coefficients [Hz]:	Yb+:S1/2->D5/2;	Yb+:S1/2->D3/2;	Yb+:S1/2->F7/2;	Yb:1S0->2D2;	Yb:1S0->3P0;
1	-31494109683875.4	257140942666846
1.0232929923	-31495003474880.3	257190454562480
1.0471285481	-31495875075230.8	257238500270571
1.0715193052	-31496724603560.5	257285094005656
1.0964781961	-31497552178502.6	257330249982276
1.1220184543	-31498357918690.8	257373982414971
1.1481536215	-31499141942758.4	257416305518280
1.1748975549	-31499904369338.8	257457233506743
1.2022644346	-31500645317065.6	257496780594898
1.2302687708	-31501364904572.2	257534960997286
1.2589254118	-31502063250491.9	257571788928447
1.2882495517	-31502740473458.3	257607278602919
1.3182567386	-31503396692104.8	257641444235242
1.3489628826	-31504032025064.7	257674300039956
1.3803842646	-31504646590971.7	257705860231601
1.4125375446	-31505240508459.1	257736139024715
1.4454397707	-31505813896160.4	257765150633839
1.4791083882	-31506366872708.9	257792909273512
1.5135612484	-31506899556738.2	257819429158274
1.5488166189	-31507412066881.6	257844724502663
1.5848931925	-31507904521772.7	257868809521220
1.6218100974	-31508377040044.9	257891698428485
1.6595869074	-31508829740331.6	257913405438996
1.6982436525	-31509262741266.1	257933944767293
1.7378008287	-31509676161482.2	257953330627917
1.77827941	-31510070119613.1	257971577235405
1.8197008586	-31510444734292.3	257988698804299
1.8620871367	-31510800124153.2	258004709549137
1.905460718	-31511136407829.3	258019623684459
1.9498445998	-31511453703954	258033455424804
1.995262315	-31511752131160.8	258046218984713
2.0417379447	-31512031808083.1	258057928578724
2.0892961309	-31512292853354.3	258068598421378
2.1379620895	-31512535385607.8	258078242727213
2.1877616239	-31512759523477.2	258086875710769
2.2387211386	-31512965385596	258094511586586
2.2908676528	-31513153090597.4	258101164569204
2.3442288153	-31513322757115	258106848873161
2.398832919	-31513474503782.2	258111578712998
2.4547089157	-31513608449232.4	258115368303254
2.5118864315	-31513724712099.1	258118231858469
2.5703957828	-31513823411015.8	258120183593181
2.6302679919	-31513904664615.8	258121237721932
2.6915348039	-31513968591532.7	258121408459259
2.7542287033	-31514015310399.8	258120710019703
2.8183829313	-31514044939850.6	258119156617804
2.8840315031	-31514057598518.6	258116762468100
2.9512092267	-31514053405037.2	258113541785131
3.0199517204	-31514032478039.7	258109508783438
3.0902954325	-31513994936159.8	258104677677559
3.1622776602	-31513940898030.8	258099062682034
3.2359365693	-31513870482286.1	258092678011402
3.3113112148	-31513783807559.3	258085537880204
3.3884415614	-31513680992483.6	258077656502978
3.4673685045	-31513562155692.8	258069048094264
3.5481338923	-31513427415820	258059726868603
3.6307805477	-31513276891498.8	258049707040532
3.715352291	-31513110701362.6	258039002824592
3.8018939632	-31512928964044.9	258027628435323
3.8904514499	-31512731798179	258015598087263
3.9810717055	-31512519322398.6	258002925994953
4.073802778	-31512291655336.9	257989626372932
4.1686938347	-31512048915627.5	257975713435739
4.265795188	-31511791221903.8	257961201397915
4.3651583224	-31511518692799.2	2579461044739981	-31494109683875.4	257140942666846
1.0232929923	-31495003474880.3	257190454562480
1.0471285481	-31495875075230.8	257238500270571
1.0715193052	-31496724603560.5	257285094005656
1.0964781961	-31497552178502.6	257330249982276
1.1220184543	-31498357918690.8	257373982414971
1.1481536215	-31499141942758.4	257416305518280
1.1748975549	-31499904369338.8	257457233506743
1.2022644346	-31500645317065.6	257496780594898
1.2302687708	-31501364904572.2	257534960997286
1.2589254118	-31502063250491.9	257571788928447
1.2882495517	-31502740473458.3	257607278602919
1.3182567386	-31503396692104.8	257641444235242
1.3489628826	-31504032025064.7	257674300039956
1.3803842646	-31504646590971.7	257705860231601
1.4125375446	-31505240508459.1	257736139024715
1.4454397707	-31505813896160.4	257765150633839
1.4791083882	-31506366872708.9	257792909273512
1.5135612484	-31506899556738.2	257819429158274
1.5488166189	-31507412066881.6	257844724502663
1.5848931925	-31507904521772.7	257868809521220
1.6218100974	-31508377040044.9	257891698428485
1.6595869074	-31508829740331.6	257913405438996
1.6982436525	-31509262741266.1	257933944767293
1.7378008287	-31509676161482.2	257953330627917
1.77827941	-31510070119613.1	257971577235405
1.8197008586	-31510444734292.3	257988698804299
1.8620871367	-31510800124153.2	258004709549137
1.905460718	-31511136407829.3	258019623684459
1.9498445998	-31511453703954	258033455424804
1.995262315	-31511752131160.8	258046218984713
2.0417379447	-31512031808083.1	258057928578724
2.0892961309	-31512292853354.3	258068598421378
2.1379620895	-31512535385607.8	258078242727213
2.1877616239	-31512759523477.2	258086875710769
2.2387211386	-31512965385596	258094511586586
2.2908676528	-31513153090597.4	258101164569204
2.3442288153	-31513322757115	258106848873161
2.398832919	-31513474503782.2	258111578712998
2.4547089157	-31513608449232.4	258115368303254
2.5118864315	-31513724712099.1	258118231858469
2.5703957828	-31513823411015.8	258120183593181
2.6302679919	-31513904664615.8	258121237721932
2.6915348039	-31513968591532.7	258121408459259
2.7542287033	-31514015310399.8	258120710019703
2.8183829313	-31514044939850.6	258119156617804
2.8840315031	-31514057598518.6	258116762468100
2.9512092267	-31514053405037.2	258113541785131
3.0199517204	-31514032478039.7	258109508783438
3.0902954325	-31513994936159.8	258104677677559
3.1622776602	-31513940898030.8	258099062682034
3.2359365693	-31513870482286.1	258092678011402
3.3113112148	-31513783807559.3	258085537880204
3.3884415614	-31513680992483.6	258077656502978
3.4673685045	-31513562155692.8	258069048094264
3.5481338923	-31513427415820	258059726868603
3.6307805477	-31513276891498.8	258049707040532
3.715352291	-31513110701362.6	258039002824592
3.8018939632	-31512928964044.9	258027628435323
3.8904514499	-31512731798179	258015598087263
3.9810717055	-31512519322398.6	258002925994953
4.073802778	-31512291655336.9	257989626372932
4.1686938347	-31512048915627.5	257975713435739
4.265795188	-31511791221903.8	257961201397915
4.3651583224	-31511518692799.2	257946104473998
4.4668359215	-31511231446947.1	257930436878528
4.5708818961	-31510929602981	257914212826045
4.6773514129	-31510613279534.5	257897446531088
4.7863009232	-31510282595240.8	257880152208198
4.8977881937	-31509937668733.4	257862344071912
5.0118723363	-31509578618645.7	257844036336772
5.1286138399	-31509205563611.3	257825243217315
5.2480746025	-31508818622263.7	257805978928083
5.3703179637	-31508417913236	257786257683614
5.4954087386	-31508003555162	257766093698449
5.6234132519	-31507575666675	257745501187126
5.7543993734	-31507134366408.3	257724494364185
5.8884365536	-31506679772995.6	257703087444166
6.0255958607	-31506212005070.2	257681294641608
6.1659500186	-31505731181265.5	257659130171051
6.3095734448	-31505237420215.1	257636608247035
6.4565422903	-31504730840552.3	257613743084098
6.6069344801	-31504211560910.6	257590548896781
6.7608297539	-31503679699923.4	257567039899622
6.9183097092	-31503135376224.3	257543230307162
7.0794578438	-31502578708446.5	257519134333941
7.2443596007	-31502009815223.6	257494766194497
7.413102413	-31501428815189.1	257470140103370
7.5857757503	-31500835826976.2	257445270275100
7.7624711663	-31500230969218.6	257420170924226
7.9432823472	-31499614360549.6	257394856265287
8.1283051616	-31498986119602.7	257369340512825
8.317637711	-31498346365011.3	257343637881377
8.511380382	-31497695215409	257317762585483
8.7096358996	-31497032789428.9	257291728839684
8.9125093813	-31496359205704.8	257265550858518
9.1201083936	-31495674582870	257239242856525
9.332543008	-31494979039557.8	257212819048245
9.5499258602	-31494272694401.9	257186293648217
9.7723722096	-31493555666035.6	257159680870980
10	-31492828073092.4	257132994931075
10.2329299228	-31492090034205.7	257106250043041
10.4712854805	-31491341668008.9	257079460421417
10.7151930524	-31490583093135.5	257052640280743
10.9647819614	-31489814428219	257025803835558
11.220184543	-31489035791892.8	256998965300403
11.481536215	-31488247302790.2	256972138889816
11.7489755494	-31487449079544.9	256945338818337
12.0226443462	-31486641240790.2	256918579300505
12.3026877081	-31485823905159.4	256891874550861
12.5892541179	-31484997191286.3	256865238783944
12.8824955169	-31484161217804.1	256838686214292
13.1825673856	-31483316103346.2	256812231056447
13.4896288259	-31482461966546.2	256785887524947
13.803842646	-31481598926037.4	256759669834331
14.1253754462	-31480727100453.4	256733592199141
14.4543977075	-31479846608427.5	256707668833914
14.7910838817	-31478957568593.3	256681913953190
15.1356124844	-31478060099584	256656341771510
15.4881661891	-31477154320033.3	256630966503413
15.8489319246	-31476240348574.5	256605802363437
16.2181009736	-31475318303841	256580863566123
16.5958690744	-31474388304466.3	256556164326011
16.9824365246	-31473450469084	256531718857639
17.3780082875	-31472504916327.3	256507541375548
17.7827941004	-31471551764829.8	256483646094276
18.1970085861	-31470591133224.8	256460047228364
18.6208713666	-31469623140145.9	256436758992351
19.0546071796	-31468647904226.4	256413795600777
19.4984459976	-31467665544099.9	256391171268180
19.9526231497	-31466676178399.7	256368900209102
20.4173794467	-31465679925759.4	256346996638080
20.8929613085	-31464676904812.2	256325474769655
21.379620895	-31463667234191.8	256304348818366
21.8776162395	-31462651032531.5	256283632998753
22.3872113857	-31461628418464.7	256263341525356
22.9086765277	-31460599510625	256243488612713
23.4422881532	-31459564427645.8	256224088475365
23.9883291902	-31458523288160.4	256205155327850
24.5470891569	-31457476210802.4	256186703384709
25.1188643151	-31456423314205.1	256168746860482
25.7039578277	-31455364717002.2	256151299969707
26.302679919	-31454300537826.9	256134376926924
26.9153480393	-31453230895312.6	256117991946672
27.5422870334	-31452155908093	256102159243492
28.1838293126	-31451075694801.4	256086893031923
28.8403150313	-31449990374071.1	256072207526504
29.5120922667	-31448900064535.9	256058116941775
30.199517204	-31447804884828.9	256044635492276
30.9029543251	-31446704953583.7	256031777392545
31.6227766017	-31445600389433.7	256019556857123
32.359365693	-31444491311012.4	256007988100549
33.1131121483	-31443377836953.2	255997085337363
33.8844156139	-31442260085889.5	255986862782103
34.6736850453	-31441138176454.9	255977334649311
35.4813389234	-31440012227282.6	255968515153525
36.307805477	-31438882357006.3	255960418509284
37.1535229097	-31437748684259.2	255953058931129
38.0189396321	-31436611327675	255946450633599
38.9045144994	-31435470405886.8	255940607831233
39.8107170553	-31434326037528.4	255935544738571
40.7380277804	-31433178341233.1	255931275570152
41.686938347	-31432027435634.3	255927814540517
42.6579518802	-31430873439365.5	255925175864204
43.651583224	-31429716471060.1	255923373755754
44.6683592151	-31428556649351.5	255922422429705
45.7088189615	-31427394092873.3	255922336100597
46.7735141287	-31426228920258.8	255923128982970
47.8630092323	-31425061250141.5	255924815291364
48.9778819368	-31423891201154.8	255927409240317
50.1187233627	-31422718891932.3	255930925044370
51.2861383991	-31421544441107.2	255935376918062
52.480746025	-31420367967313.1	255940779075932
53.703179637	-31419189589183.4	255947145732520
54.9540873858	-31418009425351.6	255954491102366
56.234132519	-31416827594451	255962829400009
57.5439937337	-31415644215115.2	255972174839989
58.8843655356	-31414459405977.6	255982541636845
60.2559586074	-31413273285671.5	255993944005117
61.6595001861	-31412085972830.6	256006396159344
63.095734448	-31410897586088.1	256019912314066
64.5654229035	-31409708244077.6	256034506683822
66.0693448008	-31408518065432.5	256050193483153
67.6082975392	-31407326933226	256066984855626
69.1830970919	-31406126979012.7	256084824795924
70.7945784384	-31404901010159.4	256103575323437
72.4435960075	-31403631280570.3	256123093591687
74.1310241301	-31402300044149.6	256143236754196
75.8577575029	-31400889554801.8	256163861964486
77.6247116629	-31399382066430.9	256184826376081
79.4328234724	-31397759832941.2	256205987142502
81.2830516164	-31396005108237.2	256227201417272
83.1763771103	-31394100146222.8	256248326353914
85.1138038202	-31392027200802.5	256269219105949
87.0963589956	-31389768525880.4	256289736826900
89.1250938134	-31387306375360.8	256309736670290
91.2010839356	-31384623003148	256329075789641
93.3254300797	-31381700663146.2	256347611338475
95.4992586021	-31378521609259.8	256365200470316
97.7237220956	-31375068095393	256381700338684
100	-31371322375449.8	256396968097104
102.3292992281	-31367266703334.7	256410860899096
104.7128548051	-31362883332951.9	256423235898184
107.1519305238	-31358154518205.8	256433950247890
109.6478196143	-31353062513000.3	256442861101737
112.2018454302	-31347589571240.1	256449825613246
114.8153621497	-31341717946829.1	256454700935940
117.489755494	-31335429893671.7	256457344223342
120.2264434617	-31328707665672.1	256457612628975
123.0268770812	-31321533516734.6	256455363306359
125.8925411794	-31313889700763.5	256450453409019
128.8249551693	-31305758471663	256442740090476
131.8256738556	-31297122083337.2	256432080504253
134.8962882592	-31287962789690.6	256418331803872
138.0384264603	-31278262844627.4	256401351142856
141.2537544623	-31268004502051.8	256380995674727
144.5439770746	-31257170015868	256357122553007
147.9108388168	-31245741639980.4	256329588931219
151.3561248436	-31233701628293.2	256298251962886
154.8816618912	-31221032234710.6	256262968801529
158.4893192461	-31207715713136.9	256223596600671
162.1810097359	-31193734317476.3	256179992513835
165.9586907438	-31179070301633.1	256132013694543
169.8243652462	-31163705919511.6	256079517296318
173.7800828749	-31147623425016	256022360472681
177.8279410039	-31130805072050.6	255960400377155
181.970085861	-31113233114519.6	255893494163264
186.2087136663	-31094889806327.2	255821498984528
190.5460717963	-31075757401377.8	255744271994471
194.9844599758	-31055818153575.5	255661670346615
199.5262314969	-31035054316824.7	255573551194482
204.173794467	-31013448145029.6	255479771691595
208.9296130854	-30990981892094.5	255380188991477
213.7962089502	-30967637811923.5	255274660247649
218.776162395	-30943398158420.9	255163042613634
223.8721138568	-30918245185491.1	255045193242955
229.0867652768	-30892161147038.3	254920969289133
234.422881532	-30865128296966.7	254790227905692
239.8832919019	-30837128889180.5	254652826246154
245.4708915685	-30808145177584.1	254508621464040
251.188643151	-30778159416081.6	254357470712875
257.0395782769	-30747153858577.4	254199231146180
263.0267991895	-30715110758975.7	254033759917476
269.1534803927	-30682012371180.7	253860914180288
275.4228703338	-30647840949096.8	253680551088138
281.8382931264	-30612578746628.1	253492527794546
288.4031503127	-30576208017678.9	253296701453038
295.1209226666	-30538711016153.4	253092929217133
301.9951720402	-30500069995956	252881068240356
309.0295432514	-30460267210990.8	252660975676228
316.2277660168	-30419276619291.4	252432480050007
323.5936569296	-30377002936708.7	252195170938735
331.1311214826	-30333316444701.8	251948519089625
338.8441561392	-30288087174559.5	251691994386579
346.7368504525	-30241185157571.2	251425066713500
354.8133892336	-30192480425026	251147205954288
363.0780547701	-30141843008212.8	250857881992846
371.5352290972	-30089142938421	250556564713076
380.1893963206	-30034250246939.5	250242723998878
389.0451449943	-29977034965057.5	249915829734156
398.1071705535	-29917367124064	249575351802811
407.3802778041	-29855116755248.3	249220760088744
416.8693834703	-29790153889899.5	248851524475858
426.5795188016	-29722348559306.5	248467114848053
436.5158322402	-29651570794758.7	248067001089233
446.683592151	-29577690627544.9	247650653083299
457.0881896149	-29500578088954.5	247217540714151
467.7351412872	-29420103210276.4	246767133865694
478.6300923226	-29336136022799.9	246298902421827
489.7788193684	-29248546557814	245812316266453
501.1872336273	-29157204846607.9	245306845283474
512.8613839914	-29061980920470.6	244781959356791
524.8074602498	-28962744810691.3	244237128370307
537.0317963703	-28859366548559.1	243671822207923
549.5408738576	-28751716165363.1	243085510753540
562.3413251903	-28639663692392.4	242477663891061
575.4399373372	-28523079160936.1	241847751504387
588.8436553556	-28401832602283.4	241195243477421
602.5595860744	-28275794047723.3	240519609694063
616.5950018615	-28144833528545	239820320038216
630.9573444802	-28008821076037.6	239096844393782
645.6542290347	-27867626721490.2	238348652644661
660.6934480076	-27721120496191.9	237575214674757
676.082975392	-27569172431431.8	236776000367971
691.8309709189	-27411652558499.1	235950479608205
707.9457843841	-27248430908682.9	235098122279359
724.435960075	-27079377513272.2	234218398265337
741.3102413009	-26904362403556.3	233310777450041
758.5775750292	-26723255610824.1	232374729717370
776.2471166287	-26535927166364.8	231409724951229
794.3282347243	-26342247101467.6	230415233035517
812.8305161641	-26142085447421.6	229390723854138
831.7637711027	-25935312235515.8	228335667290993
851.1380382024	-25721799241190.8	227249536901666
870.9635899561	-25501488108013.3	226131953323927
891.2509381337	-25274412453299.8	224982730813158
912.0108393559	-25040612164637.7	223801696824541
933.254300797	-24800127129614.4	222588678813259
954.9925860214	-24552997235817.1	221343504234492
977.2372209558	-24299262370833.2	220066000543422
1000	-24038962422250	218755995195231
1023.2929922808	-23772137277654.7	217413315645099
1047.1285480509	-23498826824634.8	216037789348208
1071.5193052376	-23219070950777.6	214629243759740
1096.4781961432	-22932909543670.4	213187506334876
1122.018454302	-22640382490900.4	211712404528798
1148.1536214969	-22341529680055	210203765796687
1174.8975549395	-22036390998721.6	208661417593725
1202.2644346174	-21725006334487.5	207085187375092
1230.2687708124	-21407415574939.9	205474902595971
1258.9254117942	-21083658607666.3	203830390711543
1288.2495516931	-20753775320253.8	202151479176990
1318.2567385564	-20417805600289.9	200437995447492
1348.9628825917	-20075789335361.9	198689766978232
1380.3842646029	-19727766413057	196906621224390
1412.5375446228	-19373776720962.6	195088385641149
1445.4397707459	-19013860146666.1	193234887683689
1479.1083881682	-18648056577754.7	191345954807192
1513.5612484362	-18276405901815.8	189421414466840
1548.8166189125	-17898948006436.7	187461094117815
1584.8931924611	-17515722779204.6	185464821215296
1621.8100973589	-17126770107707	183432423214467
1659.5869074376	-16732129879531.2	181363727570508
1698.2436524617	-16331841982264.4	179258561738601
1737.8008287494	-15925946303494	177116753173928
1778.2794100389	-15514482730807.3	174938129331669
1819.70085861	-15097491151791.7	172722517667007
1862.0871366629	-14675011454034.4	170469745635122
1905.4607179633	-14247083525122.8	168179640691197
1949.8445997581	-13813747252644.1	165852030290412
1995.2623149689	-13375042524185.8	163486741887950
2041.7379446695	-12931069175300.3	161083814652147
2089.296130854	-12482254270201.6	158644443397117
2137.9620895022	-12029135970948.5	156170215291833
2187.7616239496	-11572252530361.4	153662717825799
2238.7211385683	-11112142201260.7	151123538488524
2290.8676527678	-10649343236466.8	148554264769513
2344.2288153199	-10184393888800.1	145956484158273
2398.8329190195	-9717832411081.18	143331784144312
2454.708915685	-9250197056130.3	140681752217135
2511.8864315096	-8782026076767.96	138007975866250
2570.3957827689	-8313857725814.54	135312042581162
2630.2679918954	-7846230256090.51	132595539851380
2691.5348039269	-7379681920416.25	129860055166409
2754.2287033382	-6914750971612.21	127107176015756
2818.3829312645	-6451975662498.77	124338489888928
2884.0315031266	-5991894245896.41	121555584275431
2951.2092266664	-5535044974625.51	118760046664773
3019.951720402	-5081966101506.52	115953464546459
3090.2954325136	-4633195879359.83	113137425409997
3162.2776601684	-4189272561005.9	110313516744893
3235.9365692963	-3750734399265.12	107483326040654
