# mass(eV); Xcoeff(Hz):	 Ca+:2S1/2-2D5/2	Ca+:2D3/2-2D5/2
1.000000000000000000e+00 -8.774465360173402500e+14 4.203299516319927734e+12
1.023292992280753433e+00 -8.774465210406257500e+14 4.203299297041039551e+12
1.047128548050899610e+00 -8.774465053761116250e+14 4.203299068619176270e+12
1.071519305237605968e+00 -8.774464889918240000e+14 4.203298830650378418e+12
1.096478196143185091e+00 -8.774464718542885000e+14 4.203298582715562012e+12
1.122018454301963120e+00 -8.774464539284697500e+14 4.203298324374687500e+12
1.148153621496882826e+00 -8.774464351776918750e+14 4.203298055167549805e+12
1.174897554939529076e+00 -8.774464155635623750e+14 4.203297774612832520e+12
1.202264434617412725e+00 -8.774463950458930000e+14 4.203297482210469238e+12
1.230268770812381174e+00 -8.774463735826173750e+14 4.203297177432508301e+12
1.258925411794167504e+00 -8.774463511296960000e+14 4.203296859728625977e+12
1.288249551693133599e+00 -8.774463276410337500e+14 4.203296528527228516e+12
1.318256738556407459e+00 -8.774463030683723750e+14 4.203296183228520508e+12
1.348962882591653090e+00 -8.774462773612010000e+14 4.203295823201512207e+12
1.380384264602885214e+00 -8.774462504666382500e+14 4.203295447790636230e+12
1.412537544622753938e+00 -8.774462223293315000e+14 4.203295056310704590e+12
1.445439770745927888e+00 -8.774461928913342500e+14 4.203294648042498535e+12
1.479108388168207222e+00 -8.774461620919875000e+14 4.203294222236865723e+12
1.513561248436208651e+00 -8.774461298677925000e+14 4.203293778106682617e+12
1.548816618912481013e+00 -8.774460961522775000e+14 4.203293314833791016e+12
1.584893192461114042e+00 -8.774460608758572500e+14 4.203292831556071777e+12
1.621810097358929559e+00 -8.774460239656851250e+14 4.203292327380057129e+12
1.659586907437561099e+00 -8.774459853455081250e+14 4.203291801364381348e+12
1.698243652461743913e+00 -8.774459449354967500e+14 4.203291252530814453e+12
1.737800828749376247e+00 -8.774459026520860000e+14 4.203290679847083984e+12
1.778279410038922759e+00 -8.774458584077950000e+14 4.203290082244209473e+12
1.819700858609982319e+00 -8.774458121110436250e+14 4.203289458597122559e+12
1.862087136662867515e+00 -8.774457636659661250e+14 4.203288807731755371e+12
1.905460717963247896e+00 -8.774457129722013750e+14 4.203288128420947754e+12
1.949844599758045138e+00 -8.774456599246893750e+14 4.203287419378929199e+12
1.995262314968878847e+00 -8.774456044134460000e+14 4.203286679264313477e+12
2.041737944669529625e+00 -8.774455463233365000e+14 4.203285906669701660e+12
2.089296130854038758e+00 -8.774454855338331250e+14 4.203285100125462402e+12
2.137962089502232654e+00 -8.774454219187583750e+14 4.203284258096422852e+12
2.187761623949552092e+00 -8.774453553460222500e+14 4.203283378974778809e+12
2.238721138568339875e+00 -8.774452856773526250e+14 4.203282461078205566e+12
2.290867652767771823e+00 -8.774452127679900000e+14 4.203281502648280762e+12
2.344228815319922443e+00 -8.774451364664023750e+14 4.203280501844499512e+12
2.398832919019489474e+00 -8.774450566139497500e+14 4.203279456745216309e+12
2.454708915685031023e+00 -8.774449730445651250e+14 4.203278365335675781e+12
2.511886431509579243e+00 -8.774448855843966250e+14 4.203277225513364746e+12
2.570395782768864379e+00 -8.774447940514523750e+14 4.203276035073993164e+12
2.630267991895380852e+00 -8.774446982552081250e+14 4.203274791718268066e+12
2.691534803926916464e+00 -8.774445979962187500e+14 4.203273493033774414e+12
2.754228703338165385e+00 -8.774444930656930000e+14 4.203272136502540039e+12
2.818382931264454605e+00 -8.774443832450580000e+14 4.203270719490161621e+12
2.884031503126605056e+00 -8.774442683055026250e+14 4.203269239239661133e+12
2.951209226666386964e+00 -8.774441480074961250e+14 4.203267692867075195e+12
3.019951720402016093e+00 -8.774440221002872500e+14 4.203266077358305176e+12
3.090295432513591845e+00 -8.774438903213793750e+14 4.203264389558083984e+12
3.162277660168379523e+00 -8.774437523959813750e+14 4.203262626165727539e+12
3.235936569296280929e+00 -8.774436080364282500e+14 4.203260783732296875e+12
3.311311214825910731e+00 -8.774434569415857500e+14 4.203258858646889648e+12
3.388441561392027790e+00 -8.774432987962135000e+14 4.203256847133808105e+12
3.467368504525316641e+00 -8.774431332703091250e+14 4.203254745243572266e+12
3.548133892335752826e+00 -8.774429600184165000e+14 4.203252548845206055e+12
3.630780547701013550e+00 -8.774427786789021250e+14 4.203250253619462402e+12
3.715352290971727811e+00 -8.774425888732015000e+14 4.203247855043851074e+12
3.801893963205612792e+00 -8.774423902050235000e+14 4.203245348394690918e+12
3.890451449942804896e+00 -8.774421822595250000e+14 4.203242728726626953e+12
3.981071705534973582e+00 -8.774419646024425000e+14 4.203239990866643066e+12
4.073802778041126338e+00 -8.774417367791832500e+14 4.203237129408077148e+12
4.168693834703356416e+00 -8.774414983138791250e+14 4.203234138692972168e+12
4.265795188015926165e+00 -8.774412487083887500e+14 4.203231012802468750e+12
4.365158322401661017e+00 -8.774409874412581250e+14 4.203227745549556152e+12
4.466835921509630047e+00 -8.774407139666332500e+14 4.203224330462528320e+12
4.570881896148752510e+00 -8.774404277131172500e+14 4.203220760770650391e+12
4.677351412871980862e+00 -8.774401280825855000e+14 4.203217029394229492e+12
4.786300923226385784e+00 -8.774398144489302500e+14 4.203213128923662598e+12
4.897788193684460722e+00 -8.774394861567555000e+14 4.203209051619749512e+12
5.011872336272724660e+00 -8.774391425200145000e+14 4.203204789382343262e+12
5.128613839913647610e+00 -8.774387828205765000e+14 4.203200333740107422e+12
5.248074602497722729e+00 -8.774384063067341250e+14 4.203195675833656250e+12
5.370317963702527564e+00 -8.774380121916358750e+14 4.203190806397127930e+12
5.495408738576247565e+00 -8.774375996516418750e+14 4.203185715745256348e+12
5.623413251903491172e+00 -8.774371678246195000e+14 4.203180393744232910e+12
5.754399373371566817e+00 -8.774367158081442500e+14 4.203174829800513184e+12
5.888436553555889574e+00 -8.774362426576202500e+14 4.203169012833093750e+12
6.025595860743580445e+00 -8.774357473843235000e+14 4.203162931257752441e+12
6.165950018614822170e+00 -8.774352289533390000e+14 4.203156572957749023e+12
6.309573444801930719e+00 -8.774346862814166250e+14 4.203149925265700195e+12
6.456542290346555468e+00 -8.774341182347195000e+14 4.203142974936488770e+12
6.606934480075964622e+00 -8.774335236264690000e+14 4.203135708117005859e+12
6.760829753919817442e+00 -8.774329012144866250e+14 4.203128110327725098e+12
6.918309709189363055e+00 -8.774322496986122500e+14 4.203120166424097656e+12
7.079457843841380438e+00 -8.774315677180151250e+14 4.203111860577646973e+12
7.244359600749898043e+00 -8.774308538483681250e+14 4.203103176235636719e+12
7.413102413009175606e+00 -8.774301065989030000e+14 4.203094096093185547e+12
7.585775750291834818e+00 -8.774293244093231250e+14 4.203084602059706543e+12
7.762471166286919910e+00 -8.774285056465770000e+14 4.203074675222197754e+12
7.943282347242814012e+00 -8.774276486014776250e+14 4.203064295809952637e+12
8.128305161640994925e+00 -8.774267514851773750e+14 4.203053443155015625e+12
8.317637711026709013e+00 -8.774258124254647500e+14 4.203042095651057617e+12
8.511380382023768121e+00 -8.774248294629112500e+14 4.203030230716040039e+12
8.709635899560804972e+00 -8.774238005468152500e+14 4.203017824745105957e+12
8.912509381337459402e+00 -8.774227235309911250e+14 4.203004853063629883e+12
9.120108393559096527e+00 -8.774215961693293750e+14 4.202991289886568848e+12
9.332543007969904991e+00 -8.774204161111891250e+14 4.202977108260330078e+12
9.549925860214358408e+00 -8.774191808965488750e+14 4.202962280017390137e+12
9.772372209558112033e+00 -8.774178879509567500e+14 4.202946775722104492e+12
1.000000000000000000e+01 -8.774165345802335000e+14 4.202930564614454590e+12
1.023292992280754277e+01 -8.774151179649466250e+14 4.202913614547980469e+12
1.047128548050899610e+01 -8.774136351546245000e+14 4.202895891933529785e+12
1.071519305237606368e+01 -8.774120830617068750e+14 4.202877361672458496e+12
1.096478196143185002e+01 -8.774104584552162500e+14 4.202857987099596680e+12
1.122018454301963608e+01 -8.774087579541527500e+14 4.202837729899590332e+12
1.148153621496883048e+01 -8.774069780205741250e+14 4.202816550046244629e+12
1.174897554939529520e+01 -8.774051149523616250e+14 4.202794405727841309e+12
1.202264434617413258e+01 -8.774031648756728750e+14 4.202771253264587891e+12
1.230268770812381618e+01 -8.774011237370312500e+14 4.202747047029365723e+12
1.258925411794167459e+01 -8.773989872950656250e+14 4.202721739365015625e+12
1.288249551693134265e+01 -8.773967511118783750e+14 4.202695280498792480e+12
1.318256738556407548e+01 -8.773944105440142500e+14 4.202667618445780762e+12
1.348962882591654022e+01 -8.773919607330278750e+14 4.202638698917833496e+12
1.380384264602885125e+01 -8.773893965956157500e+14 4.202608465227940430e+12
1.412537544622754737e+01 -8.773867128133165000e+14 4.202576858178048340e+12
1.445439770745927177e+01 -8.773839038217281250e+14 4.202543815965478516e+12
1.479108388168207178e+01 -8.773809637992532500e+14 4.202509274060667969e+12
1.513561248436207940e+01 -8.773778866553321250e+14 4.202473165100347168e+12
1.548816618912481147e+01 -8.773746660181445000e+14 4.202435418763551758e+12
1.584893192461113465e+01 -8.773712952217656250e+14 4.202395961647783691e+12
1.621810097358929426e+01 -8.773677672927346250e+14 4.202354717143446777e+12
1.659586907437560654e+01 -8.773640749360341250e+14 4.202311605297090820e+12
1.698243652461744446e+01 -8.773602105204336250e+14 4.202266542667569824e+12
1.737800828749375626e+01 -8.773561660631761250e+14 4.202219442195586426e+12
1.778279410038922848e+01 -8.773519332139906250e+14 4.202170213039843750e+12
1.819700858609984095e+01 -8.773475032383841250e+14 4.202118760431310059e+12
1.862087136662868048e+01 -8.773428670001912500e+14 4.202064985508573730e+12
1.905460717963247674e+01 -8.773380149433521250e+14 4.202008785150531738e+12
1.949844599758045049e+01 -8.773329370728756250e+14 4.201950051804024902e+12
1.995262314968880091e+01 -8.773276229349650000e+14 4.201888673310847168e+12
2.041737944669529625e+01 -8.773220615962617500e+14 4.201824532714907227e+12
2.089296130854040001e+01 -8.773162416221728750e+14 4.201757508073792480e+12
2.137962089502232388e+01 -8.773101510542458750e+14 4.201687472262782227e+12
2.187761623949552714e+01 -8.773037773865432500e+14 4.201614292766720215e+12
2.238721138568340052e+01 -8.772971075409843750e+14 4.201537831474250488e+12
2.290867652767773066e+01 -8.772901278416058750e+14 4.201457944450794922e+12
2.344228815319922532e+01 -8.772828239876927500e+14 4.201374481721125977e+12
2.398832919019491072e+01 -8.772751810257430000e+14 4.201287287031940918e+12
2.454708915685031201e+01 -8.772671833202042500e+14 4.201196197613961914e+12
2.511886431509580930e+01 -8.772588145229428750e+14 4.201101043935682129e+12
2.570395782768863668e+01 -8.772500575413893750e+14 4.201001649445613281e+12
2.630267991895381030e+01 -8.772408945053077500e+14 4.200897830312329102e+12
2.691534803926915131e+01 -8.772313067321180000e+14 4.200789395156941406e+12
2.754228703338165829e+01 -8.772212746907478750e+14 4.200676144770930176e+12
2.818382931264453717e+01 -8.772107779639118750e+14 4.200557871839324219e+12
2.884031503126605500e+01 -8.771997952087897500e+14 4.200434360640728027e+12
2.951209226666384922e+01 -8.771883041160161250e+14 4.200305386755221191e+12
3.019951720402016093e+01 -8.771762813669281250e+14 4.200170716754298340e+12
3.090295432513590512e+01 -8.771637025889990000e+14 4.200030107889548828e+12
3.162277660168379256e+01 -8.771505423093852500e+14 4.199883307771100098e+12
3.235936569296282528e+01 -8.771367739065095000e+14 4.199730054044948730e+12
3.311311214825911264e+01 -8.771223695596148750e+14 4.199570074054229004e+12
3.388441561392025392e+01 -8.771073001961993750e+14 4.199403084504893066e+12
3.467368504525316553e+01 -8.770915354372581250e+14 4.199228791121142578e+12
3.548133892335754780e+01 -8.770750435402445000e+14 4.199046888296143555e+12
3.630780547701014171e+01 -8.770577913396762500e+14 4.198857058736433105e+12
3.715352290971726745e+01 -8.770397441852737500e+14 4.198658973105382812e+12
3.801893963205613147e+01 -8.770208658775720000e+14 4.198452289666659180e+12
3.890451449942807471e+01 -8.770011186008858750e+14 4.198236653914142578e+12
3.981071705534972693e+01 -8.769804628535463750e+14 4.198011698216173340e+12
4.073802778041127937e+01 -8.769588573753073750e+14 4.197777041446570801e+12
4.168693834703354639e+01 -8.769362590718230000e+14 4.197532288621478516e+12
4.265795188015928119e+01 -8.769126229360883750e+14 4.197277030542196289e+12
4.365158322401660485e+01 -8.768879019667431250e+14 4.197010843434705566e+12
4.466835921509633067e+01 -8.768620470831271250e+14 4.196733288602587402e+12
4.570881896148752332e+01 -8.768350070369800000e+14 4.196443912078671875e+12
4.677351412871981751e+01 -8.768067283206736250e+14 4.196142244295921875e+12
4.786300923226383475e+01 -8.767771550718607500e+14 4.195827799760670410e+12
4.897788193684461788e+01 -8.767462289744205000e+14 4.195500076748231445e+12
5.011872336272721640e+01 -8.767138891555387500e+14 4.195158557002452637e+12
5.128613839913648320e+01 -8.766800720016271250e+14 4.194802699691290039e+12
5.248074602497725749e+01 -8.766447108780292500e+14 4.194431928486393066e+12
5.370317963702527209e+01 -8.766077361705221250e+14 4.194045643046186523e+12
5.495408738576245611e+01 -8.765690751998692500e+14 4.193643221361793457e+12
5.623413251903490107e+01 -8.765286520925772500e+14 4.193224019197104492e+12
5.754399373371569482e+01 -8.764863876466583750e+14 4.192787369528679688e+12
5.888436553555889930e+01 -8.764421991922098750e+14 4.192332581997319336e+12
6.025595860743577248e+01 -8.763960004466811250e+14 4.191858942363728027e+12
6.165950018614822170e+01 -8.763477013646367500e+14 4.191365711996312500e+12
6.309573444801932851e+01 -8.762972079818791250e+14 4.190852127355522461e+12
6.456542290346556001e+01 -8.762444222537453750e+14 4.190317399511746094e+12
6.606934480075960892e+01 -8.761892418874225000e+14 4.189760713691719727e+12
6.760829753919819041e+01 -8.761315601681173750e+14 4.189181228846683594e+12
6.918309709189365719e+01 -8.760712657789111250e+14 4.188578077263071289e+12
7.079457843841380793e+01 -8.760082426141438750e+14 4.187950364211808105e+12
7.244359600749902484e+01 -8.759423695861548750e+14 4.187297167646596191e+12
7.413102413009177383e+01 -8.758735204252342500e+14 4.186617537959081055e+12
7.585775750291840325e+01 -8.758015634828300000e+14 4.185910498644350586e+12
7.762471166286918844e+01 -8.757263617588520000e+14 4.185175066406587402e+12
7.943282347242818275e+01 -8.756477727289482500e+14 4.184410255186380371e+12
8.128305161640994925e+01 -8.755656479058276250e+14 4.183615058646299316e+12
8.317637711026706882e+01 -8.754798326002342500e+14 4.182788450080303711e+12
8.511380382023763502e+01 -8.753901656855388750e+14 4.181929383403947266e+12
8.709635899560804262e+01 -8.752964793553302500e+14 4.181036794302448730e+12
8.912509381337454784e+01 -8.751985988739191250e+14 4.180109601602486328e+12
9.120108393559095816e+01 -8.750963423197738750e+14 4.179146708856838379e+12
9.332543007969907478e+01 -8.749895203218516250e+14 4.178147006175913574e+12
9.549925860214358408e+01 -8.748779357888850000e+14 4.177109372329785645e+12
9.772372209558105283e+01 -8.747613836316365000e+14 4.176032677146117188e+12
1.000000000000000000e+02 -8.746396504782400000e+14 4.174915784223490723e+12
1.023292992280754845e+02 -8.745125135654801250e+14 4.173757496118782715e+12
1.047128548050899610e+02 -8.743797377578606250e+14 4.172556367755445801e+12
1.071519305237607256e+02 -8.742410772595292500e+14 4.171310853155400879e+12
1.096478196143184931e+02 -8.740962759949402500e+14 4.170019358753993652e+12
1.122018454301963004e+02 -8.739450672148055000e+14 4.168680242772943848e+12
1.148153621496882835e+02 -8.737871730898737500e+14 4.167291814661354492e+12
1.174897554939529130e+02 -8.736223042924238750e+14 4.165852334636610352e+12
1.202264434617413258e+02 -8.734501595653763750e+14 4.164360013330205566e+12
1.230268770812381263e+02 -8.732704252789682500e+14 4.162813011544167480e+12
1.258925411794167530e+02 -8.730827749749580000e+14 4.161209440152589844e+12
1.288249551693133697e+02 -8.728868688983962500e+14 4.159547360143697266e+12
1.318256738556407299e+02 -8.726823535169815000e+14 4.157824782837739746e+12
1.348962882591653170e+02 -8.724688610281490000e+14 4.156039670290635742e+12
1.380384264602885196e+02 -8.722460088540233750e+14 4.154189935899753906e+12
1.412537544622753956e+02 -8.720133991244693750e+14 4.152273445258940430e+12
1.445439770745927888e+02 -8.717706181485201250e+14 4.150288017257120605e+12
1.479108388168207000e+02 -8.715172358745585000e+14 4.148231425469941406e+12
1.513561248436208757e+02 -8.712528053396833750e+14 4.146101399864938477e+12
1.548816618912481147e+02 -8.709768621087961250e+14 4.143895628858208984e+12
1.584893192461114211e+02 -8.706889237040497500e+14 4.141611761756281738e+12
1.621810097358929852e+02 -8.703884890253992500e+14 4.139247411615503418e+12
1.659586907437561081e+02 -8.700750377631220000e+14 4.136800158571556641e+12
1.698243652461744091e+02 -8.697480298032996250e+14 4.134267553678336426e+12
1.737800828749375910e+02 -8.694069046274131250e+14 4.131647123302192383e+12
1.778279410038923061e+02 -8.690510807073468750e+14 4.128936374135820312e+12
1.819700858609984380e+02 -8.686799548972843750e+14 4.126132798874806152e+12
1.862087136662867692e+02 -8.682929018241587500e+14 4.123233882631197266e+12
1.905460717963248101e+02 -8.678892732785307500e+14 4.120237110148530762e+12
1.949844599758045263e+02 -8.674683976080138750e+14 4.117139973884965332e+12
1.995262314968880730e+02 -8.670295791155726250e+14 4.113939983055895020e+12
2.041737944669529270e+02 -8.665720974653373750e+14 4.110634673708364746e+12
2.089296130854038722e+02 -8.660952070988405000e+14 4.107221619932369141e+12
2.137962089502232459e+02 -8.655981366649181250e+14 4.103698446295530762e+12
2.187761623949552074e+02 -8.650800884668503750e+14 4.100062841624836426e+12
2.238721138568340052e+02 -8.645402379307198750e+14 4.096312574238942871e+12
2.290867652767772427e+02 -8.639777330993596250e+14 4.092445508759767090e+12
2.344228815319922887e+02 -8.633916941567078750e+14 4.088459624649729980e+12
2.398832919019489509e+02 -8.627812129878976250e+14 4.084353036603210449e+12
2.454708915685031059e+02 -8.621453527808996250e+14 4.080124016971982422e+12
2.511886431509579722e+02 -8.614831475968605000e+14 4.075771017095195801e+12
2.570395782768864592e+02 -8.607935860013228750e+14 4.071292029691575195e+12
2.630267991895381670e+02 -8.600755880210292500e+14 4.066683675249644043e+12
2.691534803926916766e+02 -8.593280311752018750e+14 4.061942317421500977e+12
2.754228703338166042e+02 -8.585497539550658750e+14 4.057064245628817383e+12
2.818382931264454783e+02 -8.577395549371933750e+14 4.052045676684194336e+12
2.884031503126605003e+02 -8.568961919222803750e+14 4.046882756797093262e+12
2.951209226666387053e+02 -8.560183811053347500e+14 4.041571564031942871e+12
3.019951720402016235e+02 -8.551047962838837500e+14 4.036108111241254395e+12
3.090295432513592004e+02 -8.541540681114860000e+14 4.030488349536148926e+12
3.162277660168380180e+02 -8.531647834045772500e+14 4.024708172336508301e+12
3.235936569296284233e+02 -8.521354845114535000e+14 4.018763420071496582e+12
3.311311214825910838e+02 -8.510646687530941250e+14 4.012649885571572266e+12
3.388441561392028234e+02 -8.499507879464411250e+14 4.006363320234700195e+12
3.467368504525316553e+02 -8.487922480217786250e+14 3.999899441032943359e+12
3.548133892335756627e+02 -8.475874087469596250e+14 3.993253938438199707e+12
3.630780547701014598e+02 -8.463345835724197500e+14 3.986422485345553711e+12
3.715352290971724187e+02 -8.450320396122142500e+14 3.979400747095695801e+12
3.801893963205611726e+02 -8.436779977777056250e+14 3.972184392686225098e+12
3.890451449942804629e+02 -8.422706330820598750e+14 3.964769107280844238e+12
3.981071705534972693e+02 -8.408080751353223750e+14 3.957150606133528320e+12
4.073802778041126658e+02 -8.392884088516463750e+14 3.949324650046277832e+12
