# mphi[eV]; Yb:Xcoeffs [Hz]:	Yb:1S0->3P0 Yb+:S1/2->D5/2	Yb+:S1/2->D3/2	Yb+:S1/2->F7/2	Yb:1S0->2D2
1.000000000000000000e+00 3.127309402770776250e+14 -3.149410968387544375e+14 -3.548968999281491250e+14 2.571409426668460500e+15 -4.136342396162569531e+13
1.023292992280699920e+00 3.127675858160126875e+14 -3.149500347488031875e+14 -3.549055464990715625e+14 2.571904545624803500e+15 -4.134887695266132031e+13
1.047128548050800134e+00 3.128032113655204375e+14 -3.149587507523084375e+14 -3.549139850322545000e+14 2.572385002705705000e+15 -4.133475195678320312e+13
1.071519305237599973e+00 3.128378253397195625e+14 -3.149672460356048750e+14 -3.549222164609481250e+14 2.572850940056560000e+15 -4.132104508284914844e+13
1.096478196143099826e+00 3.128714361527262500e+14 -3.149755217850259375e+14 -3.549302417184091250e+14 2.573302499822764500e+15 -4.130775243972217188e+13
1.122018454301899837e+00 3.129040522186588125e+14 -3.149835791869085000e+14 -3.549380617378898750e+14 2.573739824149713000e+15 -4.129487013625878906e+13
1.148153621496800003e+00 3.129356819516341875e+14 -3.149914194275838750e+14 -3.549456774526436250e+14 2.574163055182802000e+15 -4.128239428132157812e+13
1.174897554939499988e+00 3.129663337657702500e+14 -3.149990436933884375e+14 -3.549530897959240625e+14 2.574572335067425500e+15 -4.127032098376791406e+13
1.202264434617400068e+00 3.129960160751840000e+14 -3.150064531706565000e+14 -3.549602997009848125e+14 2.574967805948981000e+15 -4.125864635245776562e+13
1.230268770812299906e+00 3.130247372939937500e+14 -3.150136490457217500e+14 -3.549673081010778750e+14 2.575349609972863000e+15 -4.124736649625242969e+13
1.258925411794100002e+00 3.130525058363169375e+14 -3.150206325049188750e+14 -3.549741159294598750e+14 2.575717889284466500e+15 -4.123647752400927344e+13
1.288249551693100070e+00 3.130793301162705625e+14 -3.150274047345830000e+14 -3.549807241193823125e+14 2.576072786029187000e+15 -4.122597554458914844e+13
1.318256738556399910e+00 3.131052185479728750e+14 -3.150339669210479375e+14 -3.549871336040989375e+14 2.576414442352420500e+15 -4.121585666685114844e+13
1.348962882591600021e+00 3.131301795455413750e+14 -3.150403202506474375e+14 -3.549933453168624375e+14 2.576743000399563000e+15 -4.120611699965571094e+13
1.380384264602800171e+00 3.131542215230916875e+14 -3.150464659097169375e+14 -3.549993601909283125e+14 2.577058602316008000e+15 -4.119675265186280469e+13
1.412537544622699981e+00 3.131773528947443125e+14 -3.150524050845909375e+14 -3.550051791595484375e+14 2.577361390247154000e+15 -4.118775973233066406e+13
1.445439770745899910e+00 3.131995820746149375e+14 -3.150581389616037500e+14 -3.550108031559778750e+14 2.577651506338392500e+15 -4.117913434991884375e+13
1.479108388168200117e+00 3.132209174768215000e+14 -3.150636687270890625e+14 -3.550162331134675625e+14 2.577929092735122000e+15 -4.117087261348905469e+13
1.513561248436199991e+00 3.132413675154804375e+14 -3.150689955673817500e+14 -3.550214699652733750e+14 2.578194291582737000e+15 -4.116297063189954688e+13
1.548816618912399967e+00 3.132609406047123125e+14 -3.150741206688160625e+14 -3.550265146446473125e+14 2.578447245026633000e+15 -4.115542451400985938e+13
1.584893192461100053e+00 3.132796451586310000e+14 -3.150790452177268125e+14 -3.550313680848446875e+14 2.578688095212205000e+15 -4.114823036868040625e+13
1.621810097358900027e+00 3.132974895913561875e+14 -3.150837704004489375e+14 -3.550360312191171250e+14 2.578916984284849000e+15 -4.114138430476983594e+13
1.659586907437500036e+00 3.133144823170044375e+14 -3.150882974033158125e+14 -3.550405049807194375e+14 2.579134054389960500e+15 -4.113488243113949219e+13
1.698243652461699948e+00 3.133306317496948125e+14 -3.150926274126613750e+14 -3.550447903029036875e+14 2.579339447672934500e+15 -4.112872085664582812e+13
1.737800828749299864e+00 3.133459463035440000e+14 -3.150967616148223125e+14 -3.550488881189251875e+14 2.579533306279166500e+15 -4.112289569015057031e+13
1.778279410038899888e+00 3.133604343926675625e+14 -3.151007011961312500e+14 -3.550527993620363750e+14 2.579715772354052500e+15 -4.111740304051546094e+13
1.819700858609899941e+00 3.133741044311866250e+14 -3.151044473429230000e+14 -3.550565249654913125e+14 2.579886988042988000e+15 -4.111223901659653125e+13
1.862087136662799791e+00 3.133869648332156875e+14 -3.151080012415320000e+14 -3.550600658625427500e+14 2.580047095491368000e+15 -4.110739972725596875e+13
1.905460717963200157e+00 3.133990240128737500e+14 -3.151113640782930000e+14 -3.550634229864448750e+14 2.580196236844587000e+15 -4.110288128135111719e+13
1.949844599758000063e+00 3.134102903842781875e+14 -3.151145370395405000e+14 -3.550665972704505625e+14 2.580334554248042000e+15 -4.109867978774283594e+13
1.995262314968800021e+00 3.134207723615463125e+14 -3.151175213116080000e+14 -3.550695896478141250e+14 2.580462189847128000e+15 -4.109479135529241406e+13
2.041737944669499871e+00 3.134304783587948750e+14 -3.151203180808308750e+14 -3.550724010517885000e+14 2.580579285787240500e+15 -4.109121209285721875e+13
2.089296130854000122e+00 3.134394167901433125e+14 -3.151229285335430000e+14 -3.550750324156273750e+14 2.580685984213775000e+15 -4.108793810929722656e+13
2.137962089502200236e+00 3.134475960697082500e+14 -3.151253538560781250e+14 -3.550774846725839375e+14 2.580782427272126500e+15 -4.108496551347197656e+13
2.187761623949500134e+00 3.134550246116058125e+14 -3.151275952347723125e+14 -3.550797587559123125e+14 2.580868757107690500e+15 -4.108229041424319531e+13
2.238721138568299907e+00 3.134617108299560625e+14 -3.151296538559601250e+14 -3.550818555988661875e+14 2.580945115865862500e+15 -4.107990892046826562e+13
2.290867652767699880e+00 3.134676631388741875e+14 -3.151315309059740625e+14 -3.550837761346973750e+14 2.581011645692039500e+15 -4.107781714100671094e+13
2.344228815319899795e+00 3.134728899524798125e+14 -3.151332275711496875e+14 -3.550855212966622500e+14 2.581068488731614000e+15 -4.107601118471981250e+13
2.398832919019400212e+00 3.134773996848887500e+14 -3.151347450378221250e+14 -3.550870920180115000e+14 2.581115787129984000e+15 -4.107448716046583594e+13
2.454708915684999937e+00 3.134812007502186875e+14 -3.151360844923238125e+14 -3.550884892320000000e+14 2.581153683032544000e+15 -4.107324117710604688e+13
2.511886431509500195e+00 3.134843015625889375e+14 -3.151372471209911250e+14 -3.550897138718818750e+14 2.581182318584688000e+15 -4.107226934349782031e+13
2.570395782768799986e+00 3.134867105361151250e+14 -3.151382341101583750e+14 -3.550907668709091250e+14 2.581201835931814000e+15 -4.107156776850286719e+13
2.630267991895300028e+00 3.134884360849150625e+14 -3.151390466461584375e+14 -3.550916491623351875e+14 2.581212377219317500e+15 -4.107113256097988281e+13
2.691534803926900032e+00 3.134894866231063125e+14 -3.151396859153268125e+14 -3.550923616794153750e+14 2.581214084592591000e+15 -4.107095982978839062e+13
2.754228703338100104e+00 3.134898705648075000e+14 -3.151401531039982500e+14 -3.550929053554022500e+14 2.581207100197032500e+15 -4.107104568378881250e+13
2.818382931264399982e+00 3.134895963241346875e+14 -3.151404493985056250e+14 -3.550932811235490625e+14 2.581191566178036000e+15 -4.107138623184069531e+13
2.884031503126599727e+00 3.134886723152064375e+14 -3.151405759851861875e+14 -3.550934899171095625e+14 2.581167624680998500e+15 -4.107197758280184375e+13
2.951209226666299923e+00 3.134871069521399375e+14 -3.151405340503715000e+14 -3.550935326693370000e+14 2.581135417851314500e+15 -4.107281584553440625e+13
3.019951720402000106e+00 3.134849086490531250e+14 -3.151403247803968125e+14 -3.550934103134853125e+14 2.581095087834380000e+15 -4.107389712889706250e+13
3.090295432513499918e+00 3.134820858200616875e+14 -3.151399493615975625e+14 -3.550931237828079375e+14 2.581046776775589000e+15 -4.107521754174892969e+13
3.162277660168300031e+00 3.134786468792852500e+14 -3.151394089803079375e+14 -3.550926740105580000e+14 2.580990626820338000e+15 -4.107677319294996875e+13
3.235936569296200105e+00 3.134746002408403750e+14 -3.151387048228609375e+14 -3.550920619299896250e+14 2.580926780114022500e+15 -4.107856019136060938e+13
3.311311214825900073e+00 3.134699543188457500e+14 -3.151378380755925625e+14 -3.550912884743560000e+14 2.580855378802038500e+15 -4.108057464583951562e+13
3.388441561391999812e+00 3.134647175274163125e+14 -3.151368099248365000e+14 -3.550903545769100000e+14 2.580776565029781000e+15 -4.108281266524710938e+13
3.467368504525300210e+00 3.134588982806732500e+14 -3.151356215569275000e+14 -3.550892611709066250e+14 2.580690480942644500e+15 -4.108527035844250781e+13
3.548133892335699979e+00 3.134525049927310625e+14 -3.151342741581997500e+14 -3.550880091895981250e+14 2.580597268686025500e+15 -4.108794383428567969e+13
3.630780547701000227e+00 3.134455460777080000e+14 -3.151327689149878750e+14 -3.550865995662382500e+14 2.580497070405318500e+15 -4.109082920163529688e+13
3.715352290971700278e+00 3.134380299497228125e+14 -3.151311070136256875e+14 -3.550850332340806250e+14 2.580390028245921000e+15 -4.109392256935264844e+13
3.801893963205599913e+00 3.134299650228915625e+14 -3.151292896404487500e+14 -3.550833111263788750e+14 2.580276284353226500e+15 -4.109722004629596875e+13
3.890451449942800011e+00 3.134213597113322500e+14 -3.151273179817904375e+14 -3.550814341763859375e+14 2.580155980872631000e+15 -4.110071774132612500e+13
3.981071705534899863e+00 3.134122224291613125e+14 -3.151251932239861875e+14 -3.550794033173566875e+14 2.580029259949529500e+15 -4.110441176330220312e+13
4.073802778041099693e+00 3.134025615904997500e+14 -3.151229165533695000e+14 -3.550772194825435625e+14 2.579896263729318500e+15 -4.110829822108333594e+13
4.168693834703299572e+00 3.133923856094618750e+14 -3.151204891562750000e+14 -3.550748836052005625e+14 2.579757134357393000e+15 -4.111237322352947656e+13
4.265795188015899519e+00 3.133817029001665000e+14 -3.151179122190375625e+14 -3.550723966185805625e+14 2.579612013979148500e+15 -4.111663287950020312e+13
4.365158322401600621e+00 3.133705218767291875e+14 -3.151151869279922500e+14 -3.550697594559380625e+14 2.579461044739979000e+15 -4.112107329785677344e+13
4.466835921509599849e+00 3.133588509532710625e+14 -3.151123144694711875e+14 -3.550669730505250000e+14 2.579304368785282500e+15 -4.112569058745656250e+13
4.570881896148700108e+00 3.133466985439053750e+14 -3.151092960298105000e+14 -3.550640383355963750e+14 2.579142128260452000e+15 -4.113048085716042188e+13
4.677351412871900038e+00 3.133340730627541250e+14 -3.151061327953448125e+14 -3.550609562444050000e+14 2.578974465310885000e+15 -4.113544021582703125e+13
4.786300923226300519e+00 3.133209829239315625e+14 -3.151028259524076250e+14 -3.550577277102044375e+14 2.578801522081976000e+15 -4.114056477231810156e+13
4.897788193684400326e+00 3.133074365415568750e+14 -3.150993766873337500e+14 -3.550543536662488750e+14 2.578623440719121000e+15 -4.114585063549057031e+13
5.011872336272700679e+00 3.132934423297462500e+14 -3.150957861864572500e+14 -3.550508350457897500e+14 2.578440363367716000e+15 -4.115129391420616406e+13
5.128613839913600536e+00 3.132790087026184375e+14 -3.150920556361135000e+14 -3.550471727820839375e+14 2.578252432173152500e+15 -4.115689071732354688e+13
5.248074602497700525e+00 3.132641440742907500e+14 -3.150881862226368125e+14 -3.550433678083823125e+14 2.578059789280830500e+15 -4.116263715370184375e+13
5.370317963702500030e+00 3.132488568588790000e+14 -3.150841791323601250e+14 -3.550394210579390625e+14 2.577862576836144000e+15 -4.116852933220275000e+13
5.495408738576199603e+00 3.132331554705036250e+14 -3.150800355516196875e+14 -3.550353334640078750e+14 2.577660936984488000e+15 -4.117456336168409375e+13
5.623413251903399690e+00 3.132170483232801875e+14 -3.150757566667495000e+14 -3.550311059598423125e+14 2.577455011871259000e+15 -4.118073535100671094e+13
5.754399373371500204e+00 3.132005438313264375e+14 -3.150713436640826875e+14 -3.550267394786952500e+14 2.577244943641851500e+15 -4.118704140902928125e+13
5.888436553555799868e+00 3.131836504087611250e+14 -3.150667977299563125e+14 -3.550222349538225000e+14 2.577030874441660000e+15 -4.119347764461134375e+13
6.025595860743499621e+00 3.131663764696998750e+14 -3.150621200507018750e+14 -3.550175933184739375e+14 2.576812946416082000e+15 -4.120004016661332031e+13
6.165950018614799966e+00 3.131487304282616250e+14 -3.150573118126549375e+14 -3.550128155059052500e+14 2.576591301710512500e+15 -4.120672508389475000e+13
6.309573444801899633e+00 3.131307206985634375e+14 -3.150523742021505625e+14 -3.550079024493698125e+14 2.576366082470345000e+15 -4.121352850531432031e+13
6.456542290346500401e+00 3.131123556947228125e+14 -3.150473084055225625e+14 -3.550028550821215625e+14 2.576137430840978000e+15 -4.122044653973329688e+13
6.606934480075899785e+00 3.130936438308566875e+14 -3.150421156091060625e+14 -3.549976743374125625e+14 2.575905488967805500e+15 -4.122747529601079688e+13
6.760829753919800567e+00 3.130745935210833125e+14 -3.150367969992340000e+14 -3.549923611484976250e+14 2.575670398996222500e+15 -4.123461088300638281e+13
6.918309709189299994e+00 3.130552131795201875e+14 -3.150313537622426250e+14 -3.549869164486293125e+14 2.575432303071624000e+15 -4.124184940957912500e+13
7.079457843841299614e+00 3.130355112202860000e+14 -3.150257870844650000e+14 -3.549813411710625000e+14 2.575191343339407000e+15 -4.124918698458772656e+13
7.244359600749800343e+00 3.130154960574965625e+14 -3.150200981522358125e+14 -3.549756362490491875e+14 2.574947661944967000e+15 -4.125661971689391406e+13
7.413102413009100111e+00 3.129951761052686875e+14 -3.150142881518905625e+14 -3.549698026158442500e+14 2.574701401033697000e+15 -4.126414371535676562e+13
7.585775750291800179e+00 3.129745597777225625e+14 -3.150083582697616875e+14 -3.549638412046991875e+14 2.574452702750996000e+15 -4.127175508883629688e+13
7.762471166286900370e+00 3.129536554889733125e+14 -3.150023096921860000e+14 -3.549577529488699375e+14 2.574201709242256000e+15 -4.127944994619115625e+13
7.943282347242799801e+00 3.129324716531398125e+14 -3.149961436054961250e+14 -3.549515387816083125e+14 2.573948562652874500e+15 -4.128722439628132812e+13
8.128305161640899001e+00 3.129110166843390000e+14 -3.149898611960270625e+14 -3.549451996361685625e+14 2.573693405128247000e+15 -4.129507454796724219e+13
8.317637711026700131e+00 3.128892989966882500e+14 -3.149834636501133750e+14 -3.549387364458041875e+14 2.573436378813768000e+15 -4.130299651010755469e+13
8.511380382023700619e+00 3.128673270043055000e+14 -3.149769521540896250e+14 -3.549321501437685000e+14 2.573177625854833500e+15 -4.131098639156225000e+13
8.709635899560799643e+00 3.128451091213085625e+14 -3.149703278942891875e+14 -3.549254416633156250e+14 2.572917288396838500e+15 -4.131904030119176562e+13
8.912509381337400782e+00 3.128226537618148750e+14 -3.149635920570478750e+14 -3.549186119376975000e+14 2.572655508585180000e+15 -4.132715434785342188e+13
9.120108393558998827e+00 3.127999693399410625e+14 -3.149567458286997500e+14 -3.549116619001689375e+14 2.572392428565252000e+15 -4.133532464040941406e+13
9.332543007969899662e+00 3.127770642698058750e+14 -3.149497903955783125e+14 -3.549045924839834375e+14 2.572128190482449000e+15 -4.134354728771797656e+13
9.549925860214299789e+00 3.127539469655256875e+14 -3.149427269440190625e+14 -3.548974046223940625e+14 2.571862936482168000e+15 -4.135181839863994531e+13
9.772372209558099598e+00 3.127306258412181250e+14 -3.149355566603561875e+14 -3.548900992486545625e+14 2.571596808709804500e+15 -4.136013408203400781e+13
1.000000000000000000e+01 3.127071093110022500e+14 -3.149282807309238750e+14 -3.548826772960185000e+14 2.571329949310754000e+15 -4.136849044675925781e+13
1.023292992280750013e+01 3.126834057889938125e+14 -3.149209003420568750e+14 -3.548751396977386875e+14 2.571062500430411000e+15 -4.137688360167700000e+13
1.047128548050890018e+01 3.126595236893111250e+14 -3.149134166800893125e+14 -3.548674873870693750e+14 2.570794604214171500e+15 -4.138530965564632812e+13
1.071519305237600150e+01 3.126354714260715000e+14 -3.149058309313551250e+14 -3.548597212972645000e+14 2.570526402807431000e+15 -4.139376471752592969e+13
1.096478196143180028e+01 3.126112574133930000e+14 -3.148981442821897500e+14 -3.548518423615765625e+14 2.570258038355584500e+15 -4.140224489617621094e+13
1.122018454301959878e+01 3.125868900653920000e+14 -3.148903579189278750e+14 -3.548438515132600000e+14 2.569989653004029000e+15 -4.141074630045714062e+13
1.148153621496880028e+01 3.125623777961873125e+14 -3.148824730279024375e+14 -3.548357496855671875e+14 2.569721388898157500e+15 -4.141926503922697656e+13
1.174897554939519928e+01 3.125377290198963750e+14 -3.148744907954487500e+14 -3.548275378117527500e+14 2.569453388183368000e+15 -4.142779722134743750e+13
1.202264434617410060e+01 3.125129521506357500e+14 -3.148664124079023125e+14 -3.548192168250693750e+14 2.569185793005053000e+15 -4.143633895567632812e+13
1.230268770812380019e+01 3.124880556025228750e+14 -3.148582390515944375e+14 -3.548107876587703125e+14 2.568918745508612000e+15 -4.144488635107535156e+13
1.258925411794159999e+01 3.124630477896772500e+14 -3.148499719128629375e+14 -3.548022512461110625e+14 2.568652387839436000e+15 -4.145343551640146094e+13
1.288249551693130002e+01 3.124379371262142500e+14 -3.148416121780412500e+14 -3.547936085203434375e+14 2.568386862142924000e+15 -4.146198256051592188e+13
1.318256738556400087e+01 3.124127320262513125e+14 -3.148331610334620625e+14 -3.547848604147203125e+14 2.568122310564468000e+15 -4.147052359227917188e+13
1.348962882591649937e+01 3.123874409039079375e+14 -3.148246196654624375e+14 -3.547760078624970625e+14 2.567858875249467000e+15 -4.147905472054900000e+13
1.380384264602879973e+01 3.123620721733000000e+14 -3.148159892603743125e+14 -3.547670517969260625e+14 2.567596698343314000e+15 -4.148757205418582812e+13
1.412537544622749941e+01 3.123366342485460000e+14 -3.148072710045341875e+14 -3.547579931512614375e+14 2.567335921991406000e+15 -4.149607170205050781e+13
1.445439770745919894e+01 3.123111355437621875e+14 -3.147984660842753125e+14 -3.547488328587551250e+14 2.567076688339138500e+15 -4.150454977300126562e+13
1.479108388168200072e+01 3.122855844730676875e+14 -3.147895756859328125e+14 -3.547395718526633125e+14 2.566819139531904500e+15 -4.151300237589721875e+13
1.513561248436199946e+01 3.122599894505792500e+14 -3.147806009958396250e+14 -3.547302110662376250e+14 2.566563417715103000e+15 -4.152142561959922656e+13
1.548816618912480081e+01 3.122343588904140000e+14 -3.147715432003325625e+14 -3.547207514327311250e+14 2.566309665034127000e+15 -4.152981561296681250e+13
1.584893192461109912e+01 3.122087012066899375e+14 -3.147624034857446250e+14 -3.547111938853993750e+14 2.566058023634372000e+15 -4.153816846485997656e+13
1.621810097358929781e+01 3.121830248135255000e+14 -3.147531830384095000e+14 -3.547015393574938750e+14 2.565808635661234500e+15 -4.154648028413694531e+13
1.659586907437559944e+01 3.121573381250357500e+14 -3.147438830446628125e+14 -3.546917887822690625e+14 2.565561643260110500e+15 -4.155474717965900781e+13
1.698243652461740183e+01 3.121316495553408125e+14 -3.147345046908401250e+14 -3.546819430929786875e+14 2.565317188576392500e+15 -4.156296526028440625e+13
1.737800828749369941e+01 3.121059675185567500e+14 -3.147250491632733125e+14 -3.546720032228763125e+14 2.565075413755480000e+15 -4.157113063487442969e+13
1.778279410038920005e+01 3.120803004288015625e+14 -3.147155176482976250e+14 -3.546619701052139375e+14 2.564836460942764500e+15 -4.157923941228642969e+13
1.819700858609980187e+01 3.120546567001916875e+14 -3.147059113322480625e+14 -3.546518446732465625e+14 2.564600472283644500e+15 -4.158728770138257812e+13
1.862087136662859876e+01 3.120290447468467500e+14 -3.146962314014590000e+14 -3.546416278602283125e+14 2.564367589923513000e+15 -4.159527161102067188e+13
1.905460717963240214e+01 3.120034729828824375e+14 -3.146864790422644375e+14 -3.546313205994114375e+14 2.564137956007768500e+15 -4.160318725006112500e+13
1.949844599758040076e+01 3.119779498224180000e+14 -3.146766554409992500e+14 -3.546209238240488125e+14 2.563911712681804000e+15 -4.161103072736348438e+13
