# mphi[eV]	Xcoeffs[Hz amu]: Ca+:S1/2-D5/2	Ca+:D3/2-D5/2	Ca+:S1/2-P1/2	Ca+:D3/2-P1/2
1.000000000000000000e+00 -8.774465360173403750e+14 4.203299516319928711e+12 3.541931248077633125e+14 1.235842960341423500e+15
1.023292992280753433e+00 -8.774465210406260000e+14 4.203299297041039551e+12 3.541931159596103125e+14 1.235842936297277250e+15
1.047128548050899610e+00 -8.774465053761117500e+14 4.203299068619177246e+12 3.541931066992360625e+14 1.235842911143967000e+15
1.071519305237605968e+00 -8.774464889918242500e+14 4.203298830650380371e+12 3.541930970073385625e+14 1.235842884829813000e+15
1.096478196143185091e+00 -8.774464718542886250e+14 4.203298582715562988e+12 3.541930868637092500e+14 1.235842857300713500e+15
1.122018454301963120e+00 -8.774464539284698750e+14 4.203298324374688477e+12 3.541930762471881250e+14 1.235842828500032750e+15
1.148153621496882826e+00 -8.774464351776918750e+14 4.203298055167550293e+12 3.541930651356248750e+14 1.235842798368484250e+15
1.174897554939529076e+00 -8.774464155635626250e+14 4.203297774612833496e+12 3.541930535058288125e+14 1.235842766844004250e+15
1.202264434617412725e+00 -8.774463950458931250e+14 4.203297482210470215e+12 3.541930413335184375e+14 1.235842733861622000e+15
1.230268770812381174e+00 -8.774463735826176250e+14 4.203297177432509277e+12 3.541930285932758125e+14 1.235842699353325750e+15
1.258925411794167504e+00 -8.774463511296961250e+14 4.203296859728626465e+12 3.541930152584892500e+14 1.235842663247914250e+15
1.288249551693133599e+00 -8.774463276410340000e+14 4.203296528527229004e+12 3.541930013012950625e+14 1.235842625470856000e+15
1.318256738556407459e+00 -8.774463030683725000e+14 4.203296183228521484e+12 3.541929866925249375e+14 1.235842585944126000e+15
1.348962882591653090e+00 -8.774462773612011250e+14 4.203295823201513672e+12 3.541929714016393750e+14 1.235842544586042000e+15
1.380384264602885214e+00 -8.774462504666383750e+14 4.203295447790637207e+12 3.541929553966661250e+14 1.235842501311095000e+15
1.412537544622753938e+00 -8.774462223293316250e+14 4.203295056310705078e+12 3.541929386441330625e+14 1.235842456029775500e+15
1.445439770745927888e+00 -8.774461928913343750e+14 4.203294648042499023e+12 3.541929211089937500e+14 1.235842408648370500e+15
1.479108388168207222e+00 -8.774461620919876250e+14 4.203294222236865723e+12 3.541929027545595625e+14 1.235842359068784250e+15
1.513561248436208651e+00 -8.774461298677926250e+14 4.203293778106683594e+12 3.541928835424172500e+14 1.235842307188316500e+15
1.548816618912481013e+00 -8.774460961522776250e+14 4.203293314833791504e+12 3.541928634323529375e+14 1.235842252899464250e+15
1.584893192461114042e+00 -8.774460608758573750e+14 4.203292831556072754e+12 3.541928423822634375e+14 1.235842196089676750e+15
1.621810097358929559e+00 -8.774460239656852500e+14 4.203292327380057129e+12 3.541928203480680000e+14 1.235842136641133250e+15
1.659586907437561099e+00 -8.774459853455082500e+14 4.203291801364382812e+12 3.541927972836191875e+14 1.235842074430491750e+15
1.698243652461743913e+00 -8.774459449354971250e+14 4.203291252530815430e+12 3.541927731406017500e+14 1.235842009328629500e+15
1.737800828749376247e+00 -8.774459026520861250e+14 4.203290679847084961e+12 3.541927478684316250e+14 1.235841941200364750e+15
1.778279410038922759e+00 -8.774458584077951250e+14 4.203290082244210449e+12 3.541927214141545000e+14 1.235841869904194000e+15
1.819700858609982319e+00 -8.774458121110438750e+14 4.203289458597123535e+12 3.541926937223243125e+14 1.235841795291965250e+15
1.862087136662867515e+00 -8.774457636659661250e+14 4.203288807731756836e+12 3.541926647348961250e+14 1.235841717208594250e+15
1.905460717963247896e+00 -8.774457129722015000e+14 4.203288128420948242e+12 3.541926343911009375e+14 1.235841635491723500e+15
1.949844599758045138e+00 -8.774456599246895000e+14 4.203287419378929688e+12 3.541926026273150625e+14 1.235841549971383500e+15
1.995262314968878847e+00 -8.774456044134462500e+14 4.203286679264313477e+12 3.541925693769313125e+14 1.235841460469642000e+15
2.041737944669529625e+00 -8.774455463233366250e+14 4.203285906669703125e+12 3.541925345702142500e+14 1.235841366800220500e+15
2.089296130854038758e+00 -8.774454855338333750e+14 4.203285100125462891e+12 3.541924981341570625e+14 1.235841268768116000e+15
2.137962089502232654e+00 -8.774454219187585000e+14 4.203284258096423828e+12 3.541924599923236875e+14 1.235841166169178750e+15
2.187761623949552092e+00 -8.774453553460223750e+14 4.203283378974779297e+12 3.541924200646962500e+14 1.235841058789693500e+15
2.238721138568339875e+00 -8.774452856773526250e+14 4.203282461078205566e+12 3.541923782674967500e+14 1.235840946405927750e+15
2.290867652767771823e+00 -8.774452127679901250e+14 4.203281502648281250e+12 3.541923345130194375e+14 1.235840828783657750e+15
2.344228815319922443e+00 -8.774451364664025000e+14 4.203280501844500488e+12 3.541922887094384375e+14 1.235840705677685500e+15
2.398832919019489474e+00 -8.774450566139498750e+14 4.203279456745217285e+12 3.541922407606261250e+14 1.235840576831321000e+15
2.454708915685031023e+00 -8.774449730445653750e+14 4.203278365335676270e+12 3.541921905659378125e+14 1.235840441975838750e+15
2.511886431509579243e+00 -8.774448855843967500e+14 4.203277225513365723e+12 3.541921380200105625e+14 1.235840300829920750e+15
2.570395782768864379e+00 -8.774447940514525000e+14 4.203276035073993164e+12 3.541920830125373750e+14 1.235840153099063750e+15
2.630267991895380852e+00 -8.774446982552082500e+14 4.203274791718269043e+12 3.541920254280372500e+14 1.235839998474963750e+15
2.691534803926916464e+00 -8.774445979962188750e+14 4.203273493033774902e+12 3.541919651456098750e+14 1.235839836634862250e+15
2.754228703338165385e+00 -8.774444930656932500e+14 4.203272136502541504e+12 3.541919020386854375e+14 1.235839667240881250e+15
2.818382931264454605e+00 -8.774443832450581250e+14 4.203270719490163086e+12 3.541918359747588750e+14 1.235839489939307250e+15
2.884031503126605056e+00 -8.774442683055028750e+14 4.203269239239661621e+12 3.541917668151056875e+14 1.235839304359848000e+15
2.951209226666386964e+00 -8.774441480074963750e+14 4.203267692867076660e+12 3.541916944145023125e+14 1.235839110114865500e+15
3.019951720402016093e+00 -8.774440221002873750e+14 4.203266077358305176e+12 3.541916186209071250e+14 1.235838906798552750e+15
3.090295432513591845e+00 -8.774438903213793750e+14 4.203264389558083984e+12 3.541915392751555000e+14 1.235838693986093250e+15
3.162277660168379523e+00 -8.774437523959816250e+14 4.203262626165728027e+12 3.541914562106165625e+14 1.235838471232764000e+15
3.235936569296280929e+00 -8.774436080364285000e+14 4.203260783732297852e+12 3.541913692528471250e+14 1.235838238073007750e+15
3.311311214825910731e+00 -8.774434569415858750e+14 4.203258858646891113e+12 3.541912782192275000e+14 1.235837994019460500e+15
3.388441561392027790e+00 -8.774432987962135000e+14 4.203256847133808105e+12 3.541911829185751875e+14 1.235837738561922500e+15
3.467368504525316641e+00 -8.774431332703091250e+14 4.203254745243572754e+12 3.541910831507483125e+14 1.235837471166301000e+15
3.548133892335752826e+00 -8.774429600184168750e+14 4.203252548845206543e+12 3.541909787062240625e+14 1.235837191273486000e+15
3.630780547701013550e+00 -8.774427786789022500e+14 4.203250253619462891e+12 3.541908693656581250e+14 1.235836898298180000e+15
3.715352290971727811e+00 -8.774425888732017500e+14 4.203247855043852051e+12 3.541907548994307500e+14 1.235836591627676250e+15
3.801893963205612792e+00 -8.774423902050236250e+14 4.203245348394690918e+12 3.541906350671621875e+14 1.235836270620580750e+15
3.890451449942804896e+00 -8.774421822595251250e+14 4.203242728726627441e+12 3.541905096172098750e+14 1.235835934605461750e+15
3.981071705534973582e+00 -8.774419646024426250e+14 4.203239990866644531e+12 3.541903782861433125e+14 1.235835582879452500e+15
4.073802778041126338e+00 -8.774417367791835000e+14 4.203237129408077637e+12 3.541902407981921875e+14 1.235835214706783750e+15
4.168693834703356416e+00 -8.774414983138792500e+14 4.203234138692973145e+12 3.541900968646716250e+14 1.235834829317243750e+15
4.265795188015926165e+00 -8.774412487083888750e+14 4.203231012802469727e+12 3.541899461833755625e+14 1.235834425904567000e+15
4.365158322401661017e+00 -8.774409874412582500e+14 4.203227745549557129e+12 3.541897884379476875e+14 1.235834003624755500e+15
4.466835921509630047e+00 -8.774407139666333750e+14 4.203224330462528809e+12 3.541896232972208750e+14 1.235833561594316750e+15
4.570881896148752510e+00 -8.774404277131175000e+14 4.203220760770651367e+12 3.541894504145248125e+14 1.235833098888412750e+15
4.677351412871980862e+00 -8.774401280825856250e+14 4.203217029394230957e+12 3.541892694269611875e+14 1.235832614538941000e+15
4.786300923226385784e+00 -8.774398144489302500e+14 4.203213128923663086e+12 3.541890799546472500e+14 1.235832107532501000e+15
4.897788193684460722e+00 -8.774394861567555000e+14 4.203209051619750488e+12 3.541888815999262500e+14 1.235831576808301750e+15
5.011872336272724660e+00 -8.774391425200147500e+14 4.203204789382343750e+12 3.541886739465323750e+14 1.235831021255929500e+15
5.128613839913647610e+00 -8.774387828205767500e+14 4.203200333740107910e+12 3.541884565587290625e+14 1.235830439713045750e+15
5.248074602497722729e+00 -8.774384063067343750e+14 4.203195675833657715e+12 3.541882289803958125e+14 1.235829830962963750e+15
5.370317963702527564e+00 -8.774380121916361250e+14 4.203190806397128418e+12 3.541879907340814375e+14 1.235829193732114750e+15
5.495408738576247565e+00 -8.774375996516420000e+14 4.203185715745257812e+12 3.541877413200098125e+14 1.235828526687397000e+15
5.623413251903491172e+00 -8.774371678246196250e+14 4.203180393744233398e+12 3.541874802150368750e+14 1.235827828433400750e+15
5.754399373371566817e+00 -8.774367158081446250e+14 4.203174829800514160e+12 3.541872068715652500e+14 1.235827097509510250e+15
5.888436553555889574e+00 -8.774362426576205000e+14 4.203169012833093750e+12 3.541869207164053125e+14 1.235826332386859000e+15
6.025595860743580445e+00 -8.774357473843235000e+14 4.203162931257753418e+12 3.541866211495803750e+14 1.235825531465162000e+15
6.165950018614822170e+00 -8.774352289533392500e+14 4.203156572957748535e+12 3.541863075430839375e+14 1.235824693069381000e+15
6.309573444801930719e+00 -8.774346862814170000e+14 4.203149925265701172e+12 3.541859792395741875e+14 1.235823815446256750e+15
6.456542290346555468e+00 -8.774341182347196250e+14 4.203142974936489258e+12 3.541856355510073750e+14 1.235822896760663500e+15
6.606934480075964622e+00 -8.774335236264692500e+14 4.203135708117006348e+12 3.541852757572151250e+14 1.235821935091801500e+15
6.760829753919817442e+00 -8.774329012144868750e+14 4.203128110327726074e+12 3.541848991044048125e+14 1.235820928429219250e+15
6.918309709189363055e+00 -8.774322496986122500e+14 4.203120166424098145e+12 3.541845048036041875e+14 1.235819874668640750e+15
7.079457843841380438e+00 -8.774315677180152500e+14 4.203111860577647461e+12 3.541840920290183125e+14 1.235818771607611250e+15
7.244359600749898043e+00 -8.774308538483683750e+14 4.203103176235637207e+12 3.541836599163281250e+14 1.235817616940932000e+15
7.413102413009175606e+00 -8.774301065989030000e+14 4.203094096093187012e+12 3.541832075608958750e+14 1.235816408255892000e+15
7.585775750291834818e+00 -8.774293244093233750e+14 4.203084602059707031e+12 3.541827340158986250e+14 1.235815143027281750e+15
7.762471166286919910e+00 -8.774285056465772500e+14 4.203074675222198242e+12 3.541822382903673125e+14 1.235813818612166750e+15
7.943282347242814012e+00 -8.774276486014777500e+14 4.203064295809953613e+12 3.541817193471417500e+14 1.235812432244429500e+15
8.128305161640994925e+00 -8.774267514851777500e+14 4.203053443155016602e+12 3.541811761007290625e+14 1.235810981029061750e+15
8.317637711026709013e+00 -8.774258124254650000e+14 4.203042095651058594e+12 3.541806074150652500e+14 1.235809461936181250e+15
8.511380382023768121e+00 -8.774248294629113750e+14 4.203030230716040527e+12 3.541800121011683125e+14 1.235807871794795750e+15
8.709635899560804972e+00 -8.774238005468153750e+14 4.203017824745106934e+12 3.541793889146943750e+14 1.235806207286255000e+15
8.912509381337459402e+00 -8.774227235309912500e+14 4.203004853063629883e+12 3.541787365533716250e+14 1.235804464937426500e+15
9.120108393559096527e+00 -8.774215961693297500e+14 4.202991289886570312e+12 3.541780536543210625e+14 1.235802641113537250e+15
9.332543007969904991e+00 -8.774204161111893750e+14 4.202977108260330566e+12 3.541773387912553750e+14 1.235800732010704750e+15
9.549925860214358408e+00 -8.774191808965490000e+14 4.202962280017391113e+12 3.541765904715467500e+14 1.235798733648113250e+15
9.772372209558112033e+00 -8.774178879509567500e+14 4.202946775722104980e+12 3.541758071331628750e+14 1.235796641859842000e+15
1.000000000000000000e+01 -8.774165345802336250e+14 4.202930564614454590e+12 3.541749871414636875e+14 1.235794452286311750e+15
1.023292992280754277e+01 -8.774151179649467500e+14 4.202913614547980957e+12 3.541741287858468750e+14 1.235792160365341500e+15
1.047128548050899610e+01 -8.774136351546247500e+14 4.202895891933530273e+12 3.541732302762485000e+14 1.235789761322806750e+15
1.071519305237606368e+01 -8.774120830617071250e+14 4.202877361672458496e+12 3.541722897394740625e+14 1.235787250162853500e+15
1.096478196143185002e+01 -8.774104584552163750e+14 4.202857987099598145e+12 3.541713052153730000e+14 1.235784621657689000e+15
1.122018454301963608e+01 -8.774087579541530000e+14 4.202837729899591309e+12 3.541702746528323125e+14 1.235781870336884750e+15
1.148153621496883048e+01 -8.774069780205743750e+14 4.202816550046245117e+12 3.541691959055878125e+14 1.235778990476208250e+15
1.174897554939529520e+01 -8.774051149523617500e+14 4.202794405727842285e+12 3.541680667278484375e+14 1.235775976085938000e+15
1.202264434617413258e+01 -8.774031648756730000e+14 4.202771253264588379e+12 3.541668847697206250e+14 1.235772820898658250e+15
1.230268770812381618e+01 -8.774011237370315000e+14 4.202747047029365723e+12 3.541656475724268125e+14 1.235769518356487500e+15
1.258925411794167459e+01 -8.773989872950658750e+14 4.202721739365016113e+12 3.541643525633015000e+14 1.235766061597732250e+15
1.288249551693134265e+01 -8.773967511118785000e+14 4.202695280498793457e+12 3.541629970505695000e+14 1.235762443442947000e+15
1.318256738556407548e+01 -8.773944105440145000e+14 4.202667618445781250e+12 3.541615782178789375e+14 1.235758656380339000e+15
1.348962882591654022e+01 -8.773919607330280000e+14 4.202638698917833984e+12 3.541600931185971875e+14 1.235754692550543250e+15
1.380384264602885125e+01 -8.773893965956160000e+14 4.202608465227941895e+12 3.541585386698422500e+14 1.235750543730686250e+15
1.412537544622754737e+01 -8.773867128133167500e+14 4.202576858178049316e+12 3.541569116462461875e+14 1.235746201317740750e+15
1.445439770745927177e+01 -8.773839038217283750e+14 4.202543815965479004e+12 3.541552086734426250e+14 1.235741656311136500e+15
1.479108388168207178e+01 -8.773809637992533750e+14 4.202509274060669434e+12 3.541534262212518125e+14 1.235736899294566000e+15
1.513561248436207940e+01 -8.773778866553321250e+14 4.202473165100348145e+12 3.541515605965748750e+14 1.235731920417007500e+15
1.548816618912481147e+01 -8.773746660181446250e+14 4.202435418763551758e+12 3.541496079359536250e+14 1.235726709372861750e+15
1.584893192461113465e+01 -8.773712952217658750e+14 4.202395961647783691e+12 3.541475641978065000e+14 1.235721255381220000e+15
1.621810097358929426e+01 -8.773677672927348750e+14 4.202354717143447266e+12 3.541454251543166875e+14 1.235715547164194750e+15
1.659586907437560654e+01 -8.773640749360342500e+14 4.202311605297092285e+12 3.541431863829536875e+14 1.235709572924285250e+15
1.698243652461744446e+01 -8.773602105204337500e+14 4.202266542667570312e+12 3.541408432576208125e+14 1.235703320320722250e+15
1.737800828749375626e+01 -8.773561660631763750e+14 4.202219442195587402e+12 3.541383909394070000e+14 1.235696776444779250e+15
1.778279410038922848e+01 -8.773519332139907500e+14 4.202170213039844727e+12 3.541358243669306250e+14 1.235689927793961250e+15
1.819700858609984095e+01 -8.773475032383842500e+14 4.202118760431310547e+12 3.541331382462443125e+14 1.235682760245059750e+15
1.862087136662868048e+01 -8.773428670001912500e+14 4.202064985508573730e+12 3.541303270403088125e+14 1.235675259026008750e+15
1.905460717963247674e+01 -8.773380149433523750e+14 4.202008785150533203e+12 3.541273849579863125e+14 1.235667408686489000e+15
1.949844599758045049e+01 -8.773329370728757500e+14 4.201950051804025879e+12 3.541243059425538750e+14 1.235659193067233500e+15
1.995262314968880091e+01 -8.773276229349651250e+14 4.201888673310847656e+12 3.541210836597120000e+14 1.235650595267988000e+15
2.041737944669529625e+01 -8.773220615962617500e+14 4.201824532714907227e+12 3.541177114850631875e+14 1.235641597614040000e+15
2.089296130854040001e+01 -8.773162416221731250e+14 4.201757508073792969e+12 3.541141824910381875e+14 1.235632181621285000e+15
2.137962089502232388e+01 -8.773101510542461250e+14 4.201687472262783203e+12 3.541104894332530625e+14 1.235622327959762000e+15
2.187761623949552714e+01 -8.773037773865435000e+14 4.201614292766720703e+12 3.541066247362689375e+14 1.235612016415579250e+15
2.238721138568340052e+01 -8.772971075409843750e+14 4.201537831474251465e+12 3.541025804787251875e+14 1.235601225851183750e+15
2.290867652767773066e+01 -8.772901278416060000e+14 4.201457944450795898e+12 3.540983483778301875e+14 1.235589934163887000e+15
2.344228815319922532e+01 -8.772828239876928750e+14 4.201374481721126465e+12 3.540939197731762500e+14 1.235578118242590250e+15
2.398832919019491072e+01 -8.772751810257431250e+14 4.201287287031941895e+12 3.540892856098490000e+14 1.235565753922624000e+15
2.454708915685031201e+01 -8.772671833202045000e+14 4.201196197613962402e+12 3.540844364208105625e+14 1.235552815938629000e+15
2.511886431509580930e+01 -8.772588145229428750e+14 4.201101043935682617e+12 3.540793623085198750e+14 1.235539277875398500e+15
2.570395782768863668e+01 -8.772500575413895000e+14 4.201001649445613770e+12 3.540740529257590625e+14 1.235525112116594250e+15
2.630267991895381030e+01 -8.772408945053078750e+14 4.200897830312329102e+12 3.540684974556403125e+14 1.235510289791260750e+15
2.691534803926915131e+01 -8.772313067321180000e+14 4.200789395156941406e+12 3.540626845907538125e+14 1.235494780718028750e+15
2.754228703338165829e+01 -8.772212746907480000e+14 4.200676144770930664e+12 3.540566025114237500e+14 1.235478553346942750e+15
2.818382931264453717e+01 -8.772107779639120000e+14 4.200557871839324219e+12 3.540502388630400000e+14 1.235461574698791250e+15
2.884031503126605500e+01 -8.771997952087898750e+14 4.200434360640728516e+12 3.540435807324241250e+14 1.235443810301854750e+15
2.951209226666384922e+01 -8.771883041160162500e+14 4.200305386755222168e+12 3.540366146231975000e+14 1.235425224125969000e+15
3.019951720402016093e+01 -8.771762813669282500e+14 4.200170716754299316e+12 3.540293264301081875e+14 1.235405778513790750e+15
3.090295432513590512e+01 -8.771637025889991250e+14 4.200030107889549805e+12 3.540217014122748125e+14 1.235385434109163500e+15
3.162277660168379256e+01 -8.771505423093855000e+14 4.199883307771101074e+12 3.540137241653116875e+14 1.235364149782468000e+15
3.235936569296282528e+01 -8.771367739065095000e+14 4.199730054044948730e+12 3.540053785922881250e+14 1.235341882552842750e+15
3.311311214825911264e+01 -8.771223695596150000e+14 4.199570074054229980e+12 3.539966478734762500e+14 1.235318587507145500e+15
3.388441561392025392e+01 -8.771073001961995000e+14 4.199403084504893555e+12 3.539875144348486875e+14 1.235294217715553250e+15
3.467368504525316553e+01 -8.770915354372582500e+14 4.199228791121143066e+12 3.539779599152664375e+14 1.235268724143645750e+15
3.548133892335754780e+01 -8.770750435402447500e+14 4.199046888296144531e+12 3.539679651323280625e+14 1.235242055560869000e+15
