# mphi[eV]; Yb:Xcoeffs [Hz]:	Yb+:S1/2->D5/2; Yb+:S1/2->F7/2;
1.000000000000000000e+00 -3.149410968387544375e+14 2.571409426668460500e+15
1.023292992280699920e+00 -3.149500347488031875e+14 2.571904545624803500e+15
1.047128548050800134e+00 -3.149587507523084375e+14 2.572385002705705000e+15
1.071519305237599973e+00 -3.149672460356048750e+14 2.572850940056560000e+15
1.096478196143099826e+00 -3.149755217850259375e+14 2.573302499822764500e+15
1.122018454301899837e+00 -3.149835791869085000e+14 2.573739824149713000e+15
1.148153621496800003e+00 -3.149914194275838750e+14 2.574163055182802000e+15
1.174897554939499988e+00 -3.149990436933884375e+14 2.574572335067425500e+15
1.202264434617400068e+00 -3.150064531706565000e+14 2.574967805948981000e+15
1.230268770812299906e+00 -3.150136490457217500e+14 2.575349609972863000e+15
1.258925411794100002e+00 -3.150206325049188750e+14 2.575717889284466500e+15
1.288249551693100070e+00 -3.150274047345830000e+14 2.576072786029187000e+15
1.318256738556399910e+00 -3.150339669210479375e+14 2.576414442352420500e+15
1.348962882591600021e+00 -3.150403202506474375e+14 2.576743000399563000e+15
1.380384264602800171e+00 -3.150464659097169375e+14 2.577058602316008000e+15
1.412537544622699981e+00 -3.150524050845909375e+14 2.577361390247154000e+15
1.445439770745899910e+00 -3.150581389616037500e+14 2.577651506338392500e+15
1.479108388168200117e+00 -3.150636687270890625e+14 2.577929092735122000e+15
1.513561248436199991e+00 -3.150689955673817500e+14 2.578194291582737000e+15
1.548816618912399967e+00 -3.150741206688160625e+14 2.578447245026633000e+15
1.584893192461100053e+00 -3.150790452177268125e+14 2.578688095212205000e+15
1.621810097358900027e+00 -3.150837704004489375e+14 2.578916984284849000e+15
1.659586907437500036e+00 -3.150882974033158125e+14 2.579134054389960500e+15
1.698243652461699948e+00 -3.150926274126613750e+14 2.579339447672934500e+15
1.737800828749299864e+00 -3.150967616148223125e+14 2.579533306279166500e+15
1.778279410038899888e+00 -3.151007011961312500e+14 2.579715772354052500e+15
1.819700858609899941e+00 -3.151044473429230000e+14 2.579886988042988000e+15
1.862087136662799791e+00 -3.151080012415320000e+14 2.580047095491368000e+15
1.905460717963200157e+00 -3.151113640782930000e+14 2.580196236844587000e+15
1.949844599758000063e+00 -3.151145370395405000e+14 2.580334554248042000e+15
1.995262314968800021e+00 -3.151175213116080000e+14 2.580462189847128000e+15
2.041737944669499871e+00 -3.151203180808308750e+14 2.580579285787240500e+15
2.089296130854000122e+00 -3.151229285335430000e+14 2.580685984213775000e+15
2.137962089502200236e+00 -3.151253538560781250e+14 2.580782427272126500e+15
2.187761623949500134e+00 -3.151275952347723125e+14 2.580868757107690500e+15
2.238721138568299907e+00 -3.151296538559601250e+14 2.580945115865862500e+15
2.290867652767699880e+00 -3.151315309059740625e+14 2.581011645692039500e+15
2.344228815319899795e+00 -3.151332275711496875e+14 2.581068488731614000e+15
2.398832919019400212e+00 -3.151347450378221250e+14 2.581115787129984000e+15
2.454708915684999937e+00 -3.151360844923238125e+14 2.581153683032544000e+15
2.511886431509500195e+00 -3.151372471209911250e+14 2.581182318584688000e+15
2.570395782768799986e+00 -3.151382341101583750e+14 2.581201835931814000e+15
2.630267991895300028e+00 -3.151390466461584375e+14 2.581212377219317500e+15
2.691534803926900032e+00 -3.151396859153268125e+14 2.581214084592591000e+15
2.754228703338100104e+00 -3.151401531039982500e+14 2.581207100197032500e+15
2.818382931264399982e+00 -3.151404493985056250e+14 2.581191566178036000e+15
2.884031503126599727e+00 -3.151405759851861875e+14 2.581167624680998500e+15
2.951209226666299923e+00 -3.151405340503715000e+14 2.581135417851314500e+15
3.019951720402000106e+00 -3.151403247803968125e+14 2.581095087834380000e+15
3.090295432513499918e+00 -3.151399493615975625e+14 2.581046776775589000e+15
3.162277660168300031e+00 -3.151394089803079375e+14 2.580990626820338000e+15
3.235936569296200105e+00 -3.151387048228609375e+14 2.580926780114022500e+15
3.311311214825900073e+00 -3.151378380755925625e+14 2.580855378802038500e+15
3.388441561391999812e+00 -3.151368099248365000e+14 2.580776565029781000e+15
3.467368504525300210e+00 -3.151356215569275000e+14 2.580690480942644500e+15
3.548133892335699979e+00 -3.151342741581997500e+14 2.580597268686025500e+15
3.630780547701000227e+00 -3.151327689149878750e+14 2.580497070405318500e+15
3.715352290971700278e+00 -3.151311070136256875e+14 2.580390028245921000e+15
3.801893963205599913e+00 -3.151292896404487500e+14 2.580276284353226500e+15
3.890451449942800011e+00 -3.151273179817904375e+14 2.580155980872631000e+15
3.981071705534899863e+00 -3.151251932239861875e+14 2.580029259949529500e+15
4.073802778041099693e+00 -3.151229165533695000e+14 2.579896263729318500e+15
4.168693834703299572e+00 -3.151204891562750000e+14 2.579757134357393000e+15
4.265795188015899519e+00 -3.151179122190375625e+14 2.579612013979148500e+15
4.365158322401600621e+00 -3.151151869279922500e+14 2.579461044739979000e+15
4.466835921509599849e+00 -3.151123144694711875e+14 2.579304368785282500e+15
4.570881896148700108e+00 -3.151092960298105000e+14 2.579142128260452000e+15
4.677351412871900038e+00 -3.151061327953448125e+14 2.578974465310885000e+15
4.786300923226300519e+00 -3.151028259524076250e+14 2.578801522081976000e+15
4.897788193684400326e+00 -3.150993766873337500e+14 2.578623440719121000e+15
5.011872336272700679e+00 -3.150957861864572500e+14 2.578440363367716000e+15
5.128613839913600536e+00 -3.150920556361135000e+14 2.578252432173152500e+15
5.248074602497700525e+00 -3.150881862226368125e+14 2.578059789280830500e+15
5.370317963702500030e+00 -3.150841791323601250e+14 2.577862576836144000e+15
5.495408738576199603e+00 -3.150800355516196875e+14 2.577660936984488000e+15
5.623413251903399690e+00 -3.150757566667495000e+14 2.577455011871259000e+15
5.754399373371500204e+00 -3.150713436640826875e+14 2.577244943641851500e+15
5.888436553555799868e+00 -3.150667977299563125e+14 2.577030874441660000e+15
6.025595860743499621e+00 -3.150621200507018750e+14 2.576812946416082000e+15
6.165950018614799966e+00 -3.150573118126549375e+14 2.576591301710512500e+15
6.309573444801899633e+00 -3.150523742021505625e+14 2.576366082470345000e+15
6.456542290346500401e+00 -3.150473084055225625e+14 2.576137430840978000e+15
6.606934480075899785e+00 -3.150421156091060625e+14 2.575905488967805500e+15
6.760829753919800567e+00 -3.150367969992340000e+14 2.575670398996222500e+15
6.918309709189299994e+00 -3.150313537622426250e+14 2.575432303071624000e+15
7.079457843841299614e+00 -3.150257870844650000e+14 2.575191343339407000e+15
7.244359600749800343e+00 -3.150200981522358125e+14 2.574947661944967000e+15
7.413102413009100111e+00 -3.150142881518905625e+14 2.574701401033697000e+15
7.585775750291800179e+00 -3.150083582697616875e+14 2.574452702750996000e+15
7.762471166286900370e+00 -3.150023096921860000e+14 2.574201709242256000e+15
7.943282347242799801e+00 -3.149961436054961250e+14 2.573948562652874500e+15
8.128305161640899001e+00 -3.149898611960270625e+14 2.573693405128247000e+15
8.317637711026700131e+00 -3.149834636501133750e+14 2.573436378813768000e+15
8.511380382023700619e+00 -3.149769521540896250e+14 2.573177625854833500e+15
8.709635899560799643e+00 -3.149703278942891875e+14 2.572917288396838500e+15
8.912509381337400782e+00 -3.149635920570478750e+14 2.572655508585180000e+15
9.120108393558998827e+00 -3.149567458286997500e+14 2.572392428565252000e+15
9.332543007969899662e+00 -3.149497903955783125e+14 2.572128190482449000e+15
9.549925860214299789e+00 -3.149427269440190625e+14 2.571862936482168000e+15
9.772372209558099598e+00 -3.149355566603561875e+14 2.571596808709804500e+15
1.000000000000000000e+01 -3.149282807309238750e+14 2.571329949310754000e+15
1.023292992280750013e+01 -3.149209003420568750e+14 2.571062500430411000e+15
1.047128548050890018e+01 -3.149134166800893125e+14 2.570794604214171500e+15
1.071519305237600150e+01 -3.149058309313551250e+14 2.570526402807431000e+15
1.096478196143180028e+01 -3.148981442821897500e+14 2.570258038355584500e+15
1.122018454301959878e+01 -3.148903579189278750e+14 2.569989653004029000e+15
1.148153621496880028e+01 -3.148824730279024375e+14 2.569721388898157500e+15
1.174897554939519928e+01 -3.148744907954487500e+14 2.569453388183368000e+15
1.202264434617410060e+01 -3.148664124079023125e+14 2.569185793005053000e+15
1.230268770812380019e+01 -3.148582390515944375e+14 2.568918745508612000e+15
1.258925411794159999e+01 -3.148499719128629375e+14 2.568652387839436000e+15
1.288249551693130002e+01 -3.148416121780412500e+14 2.568386862142924000e+15
1.318256738556400087e+01 -3.148331610334620625e+14 2.568122310564468000e+15
1.348962882591649937e+01 -3.148246196654624375e+14 2.567858875249467000e+15
1.380384264602879973e+01 -3.148159892603743125e+14 2.567596698343314000e+15
1.412537544622749941e+01 -3.148072710045341875e+14 2.567335921991406000e+15
1.445439770745919894e+01 -3.147984660842753125e+14 2.567076688339138500e+15
1.479108388168200072e+01 -3.147895756859328125e+14 2.566819139531904500e+15
1.513561248436199946e+01 -3.147806009958396250e+14 2.566563417715103000e+15
1.548816618912480081e+01 -3.147715432003325625e+14 2.566309665034127000e+15
1.584893192461109912e+01 -3.147624034857446250e+14 2.566058023634372000e+15
1.621810097358929781e+01 -3.147531830384095000e+14 2.565808635661234500e+15
1.659586907437559944e+01 -3.147438830446628125e+14 2.565561643260110500e+15
1.698243652461740183e+01 -3.147345046908401250e+14 2.565317188576392500e+15
1.737800828749369941e+01 -3.147250491632733125e+14 2.565075413755480000e+15
1.778279410038920005e+01 -3.147155176482976250e+14 2.564836460942764500e+15
1.819700858609980187e+01 -3.147059113322480625e+14 2.564600472283644500e+15
1.862087136662859876e+01 -3.146962314014590000e+14 2.564367589923513000e+15
1.905460717963240214e+01 -3.146864790422644375e+14 2.564137956007768500e+15
1.949844599758040076e+01 -3.146766554409992500e+14 2.563911712681804000e+15
1.995262314968879735e+01 -3.146667617839971250e+14 2.563689002091016000e+15
2.041737944669520033e+01 -3.146567992575936250e+14 2.563469966380798500e+15
2.089296130854030054e+01 -3.146467690481221250e+14 2.563254747696549000e+15
2.137962089502230256e+01 -3.146366723419176250e+14 2.563043488183661000e+15
2.187761623949549872e+01 -3.146265103253145000e+14 2.562836329987532000e+15
2.238721138568340052e+01 -3.146162841846468750e+14 2.562633415253556000e+15
2.290867652767769869e+01 -3.146059951062498750e+14 2.562434886127128500e+15
2.344228815319919690e+01 -3.145956442764577500e+14 2.562240884753645500e+15
2.398832919019490006e+01 -3.145852328816037500e+14 2.562051553278502500e+15
2.454708915685030135e+01 -3.145747621080235625e+14 2.561867033847094500e+15
2.511886431509580220e+01 -3.145642331420513125e+14 2.561687468604818000e+15
2.570395782768860116e+01 -3.145536471700221250e+14 2.561512999697066500e+15
2.630267991895379964e+01 -3.145430053782685625e+14 2.561343769269236500e+15
2.691534803926910158e+01 -3.145323089531264375e+14 2.561179919466724000e+15
2.754228703338160145e+01 -3.145215590809296250e+14 2.561021592434924000e+15
2.818382931264450164e+01 -3.145107569480136875e+14 2.560868930319232000e+15
2.884031503126599816e+01 -3.144999037407114375e+14 2.560722075265043000e+15
2.951209226666379948e+01 -3.144890006453585625e+14 2.560581169417753000e+15
3.019951720402010054e+01 -3.144780488482887500e+14 2.560446354922757000e+15
3.090295432513590157e+01 -3.144670495358368125e+14 2.560317773925452000e+15
3.162277660168370019e+01 -3.144560038943371250e+14 2.560195568571231500e+15
3.235936569296279686e+01 -3.144449131101241250e+14 2.560079881005491000e+15
3.311311214825909843e+01 -3.144337783695320000e+14 2.559970853373626000e+15
3.388441561392019707e+01 -3.144226008588954375e+14 2.559868627821034000e+15
3.467368504525310158e+01 -3.144113817645486250e+14 2.559773346493108500e+15
3.548133892335750517e+01 -3.144001222728261875e+14 2.559685151535245500e+15
3.630780547701009908e+01 -3.143888235700628750e+14 2.559604185092840000e+15
3.715352290971719640e+01 -3.143774868425924375e+14 2.559530589311287500e+15
3.801893963205609595e+01 -3.143661132767495625e+14 2.559464506335985500e+15
3.890451449942800366e+01 -3.143547040588684375e+14 2.559406078312327000e+15
3.981071705534969851e+01 -3.143432603752840625e+14 2.559355447385708000e+15
4.073802778041119410e+01 -3.143317834123309375e+14 2.559312755701524000e+15
4.168693834703349665e+01 -3.143202743563426250e+14 2.559278145405171000e+15
4.265795188015920303e+01 -3.143087343936546875e+14 2.559251758642042500e+15
4.365158322401659774e+01 -3.142971647106010625e+14 2.559233737557537500e+15
4.466835921509630225e+01 -3.142855664935153125e+14 2.559224224297049000e+15
4.570881896148750201e+01 -3.142739409287327500e+14 2.559223361005973000e+15
4.677351412871980330e+01 -3.142622892025878750e+14 2.559231289829704000e+15
4.786300923226380633e+01 -3.142506125014150625e+14 2.559248152913638500e+15
4.897788193684460367e+01 -3.142389120115483750e+14 2.559274092403172000e+15
5.011872336272720219e+01 -3.142271889193226875e+14 2.559309250443700000e+15
5.128613839913639794e+01 -3.142154444110715625e+14 2.559353769180617500e+15
5.248074602497720065e+01 -3.142036796731306875e+14 2.559407790759320500e+15
5.370317963702520103e+01 -3.141918958918338125e+14 2.559471457325203500e+15
5.495408738576239926e+01 -3.141800942535155625e+14 2.559544911023663000e+15
5.623413251903490107e+01 -3.141682759445101875e+14 2.559628294000093000e+15
5.754399373371559534e+01 -3.141564421511518750e+14 2.559721748399891000e+15
5.888436553555889930e+01 -3.141445940597758125e+14 2.559825416368450000e+15
6.025595860743569432e+01 -3.141327328567153750e+14 2.559939440051169500e+15
6.165950018614820038e+01 -3.141208597283060000e+14 2.560063961593440000e+15
6.309573444801930009e+01 -3.141089758608814375e+14 2.560199123140660000e+15
6.456542290346548896e+01 -3.140970824407760625e+14 2.560345066838224500e+15
6.606934480075959470e+01 -3.140851806543253125e+14 2.560501934831528000e+15
6.760829753919810514e+01 -3.140732693322604375e+14 2.560669848556256000e+15
6.918309709189360035e+01 -3.140612697901271875e+14 2.560848247959240000e+15
7.079457843841380793e+01 -3.140490101015936250e+14 2.561035753234370000e+15
7.244359600749899641e+01 -3.140363128057025625e+14 2.561230935916868000e+15
7.413102413009170277e+01 -3.140230004414965000e+14 2.561432367541957000e+15
7.585775750291840325e+01 -3.140088955480178125e+14 2.561638619644862500e+15
7.762471166286910318e+01 -3.139938206643088125e+14 2.561848263760810000e+15
7.943282347242809749e+01 -3.139775983294123750e+14 2.562059871425020500e+15
8.128305161640990661e+01 -3.139600510823718750e+14 2.562272014172722000e+15
8.317637711026699776e+01 -3.139410014622278750e+14 2.562483263539136000e+15
8.511380382023760660e+01 -3.139202720080250625e+14 2.562692191059488000e+15
8.709635899560799999e+01 -3.138976852588040000e+14 2.562897368269001000e+15
8.912509381337449099e+01 -3.138730637536080000e+14 2.563097366702900500e+15
9.120108393559090132e+01 -3.138462300314803125e+14 2.563290757896410500e+15
9.332543007969908899e+01 -3.138170066314625000e+14 2.563476113384754500e+15
9.549925860214349882e+01 -3.137852160925983125e+14 2.563652004703157500e+15
9.772372209558099598e+01 -3.137506809539296875e+14 2.563817003386843000e+15
1.000000000000000000e+02 -3.137132237544976875e+14 2.563969680971037500e+15
1.023292992280753992e+02 -3.136726670333468750e+14 2.564108608990961000e+15
1.047128548050899042e+02 -3.136288333295194375e+14 2.564232358981841500e+15
1.071519305237606972e+02 -3.135815451820576250e+14 2.564339502478901500e+15
1.096478196143185073e+02 -3.135306251300031875e+14 2.564428611017366000e+15
1.122018454301963004e+02 -3.134758957124006875e+14 2.564498256132457500e+15
1.148153621496882977e+02 -3.134171794682913750e+14 2.564547009359402000e+15
1.174897554939528987e+02 -3.133542989367169375e+14 2.564573442233424000e+15
1.202264434617412974e+02 -3.132870766567210000e+14 2.564576126289746500e+15
1.230268770812381121e+02 -3.132153351673464375e+14 2.564553633063595000e+15
1.258925411794166962e+02 -3.131388970076346875e+14 2.564504534090192500e+15
1.288249551693133128e+02 -3.130575847166296875e+14 2.564427400904762500e+15
1.318256738556407015e+02 -3.129712208333723750e+14 2.564320805042531500e+15
1.348962882591653170e+02 -3.128796278969060000e+14 2.564183318038723000e+15
1.380384264602884912e+02 -3.127826284462743125e+14 2.564013511428559000e+15
1.412537544622753956e+02 -3.126800450205180625e+14 2.563809956747268000e+15
1.445439770745927888e+02 -3.125717001586802500e+14 2.563571225530069500e+15
1.479108388168207000e+02 -3.124574163998038750e+14 2.563295889312191500e+15
1.513561248436207904e+02 -3.123370162829321250e+14 2.562982519628856000e+15
1.548816618912481147e+02 -3.122103223471060000e+14 2.562629688015288500e+15
1.584893192461113927e+02 -3.120771571313685000e+14 2.562235966006712000e+15
1.621810097358928999e+02 -3.119373431747628750e+14 2.561799925138352000e+15
1.659586907437561081e+02 -3.117907030163314375e+14 2.561320136945432000e+15
1.698243652461743807e+02 -3.116370591951163125e+14 2.560795172963176000e+15
1.737800828749375910e+02 -3.114762342501600000e+14 2.560223604726808500e+15
1.778279410038923061e+02 -3.113080507205056250e+14 2.559604003771555000e+15
1.819700858609983811e+02 -3.111323311451958125e+14 2.558934941632637000e+15
1.862087136662866840e+02 -3.109488980632717500e+14 2.558214989845281000e+15
1.905460717963247816e+02 -3.107575740137780625e+14 2.557442719944710500e+15
1.949844599758044978e+02 -3.105581815357551875e+14 2.556616703466149500e+15
1.995262314968879878e+02 -3.103505431682470625e+14 2.555735511944822500e+15
2.041737944669528986e+02 -3.101344814502963125e+14 2.554797716915953500e+15
2.089296130854038154e+02 -3.099098189209445625e+14 2.553801889914767500e+15
2.137962089502231890e+02 -3.096763781192346250e+14 2.552746602476488000e+15
2.187761623949550938e+02 -3.094339815842092500e+14 2.551630426136339000e+15
2.238721138568340052e+02 -3.091824518549113125e+14 2.550451932429545500e+15
2.290867652767772142e+02 -3.089216114703828125e+14 2.549209692891330500e+15
2.344228815319922035e+02 -3.086512829696667500e+14 2.547902279056920000e+15
2.398832919019489793e+02 -3.083712888918053125e+14 2.546528262461536000e+15
2.454708915685031059e+02 -3.080814517758410625e+14 2.545086214640405000e+15
2.511886431509579154e+02 -3.077815941608161250e+14 2.543574707128749500e+15
2.570395782768864024e+02 -3.074715385857741875e+14 2.541992311461796000e+15
2.630267991895381101e+02 -3.071511075897570625e+14 2.540337599174765000e+15
2.691534803926916197e+02 -3.068201237118071250e+14 2.538609141802884000e+15
2.754228703338166042e+02 -3.064784094909675625e+14 2.536805510881376000e+15
2.818382931264454783e+02 -3.061257874662805625e+14 2.534925277945464500e+15
2.884031503126605003e+02 -3.057620801767885625e+14 2.532967014530375500e+15
2.951209226666387053e+02 -3.053871101615339375e+14 2.530929292171332500e+15
3.019951720402016235e+02 -3.050006999595598125e+14 2.528810682403558500e+15
3.090295432513592004e+02 -3.046026721099084375e+14 2.526609756762279500e+15
3.162277660168379043e+02 -3.041927661929136250e+14 2.524324800500072000e+15
3.235936569296283665e+02 -3.037700293670871250e+14 2.521951709387346500e+15
3.311311214825910838e+02 -3.033331644470175625e+14 2.519485190896247500e+15
3.388441561392027097e+02 -3.028808717455954375e+14 2.516919943865792000e+15
3.467368504525315984e+02 -3.024118515757123125e+14 2.514250667134996000e+15
3.548133892335757196e+02 -3.019248042502596250e+14 2.511472059542880000e+15
3.630780547701014029e+02 -3.014184300821282500e+14 2.508578819928461000e+15
3.715352290971724187e+02 -3.008914293842096875e+14 2.505565647130757000e+15
3.801893963205612295e+02 -3.003425024693948750e+14 2.502427239988784000e+15
3.890451449942805198e+02 -2.997703496505746875e+14 2.499158297341562000e+15
3.981071705534973262e+02 -2.991736712406403125e+14 2.495753518028108000e+15
4.073802778041126089e+02 -2.985511675524833125e+14 2.492207600887440000e+15
